// Id               X                Y
  1  -0.0748748264456354 0.104624656544994
  2  0.858977912793669 0.129993122877358
  3    1.7728154426083 0.303722735905953
  4   2.64644100552516 0.596437445835291
  5   3.47853482776962 0.968976055885441
  6    4.2834518651733  1.37486258187668
  7   5.08903433811136  1.76529986367941
  8   5.93392899965644  2.04368973321635
  9   6.81450258319428  2.06067751453102
 10   7.60409820979455  1.68957071198035
 11   8.09405785769195 0.961630879331707
 12   8.17492749758881  0.48173111821873
 13   8.11082898655973 -0.0186993271006367
 14   7.89596480708653 -0.498621235450597
 15   7.37973083759408 -1.00044784981211
 16   7.79959497203156 -0.181487778508155
 17   7.77134330797645 0.0930152567650131
 18   7.62620201351229 0.284326257909083
 19   7.42488957930962  0.41009486544716
 20   7.20863273344973 0.490002336615345
 21   6.99698401928427 0.541644069892077
 22   6.80803576243962 0.573046546120062
 23   6.62918409003692 0.592366870431526
 24   6.45490878769231  0.60234927473505
 25    6.2838246684772 0.603970367899117
 26   6.11535749750428  0.59776062982392
 27    5.9493083640214 0.584224951603996
 28   5.78635904803566 0.564207042895708
 29    5.6259410453806 0.538823844928644
 30   5.46752448495017 0.509364522171121
 31   5.31090721076333 0.477135421261397
 32   5.15580138079018 0.443246364606912
 33   5.00187916439196  0.40855184626482
 34   4.84883575297599 0.373672696728725
 35   4.69642065356724 0.339046003753582
 36   4.54444258042561 0.304975422520923
 37   4.39276145747742 0.271671979461981
 38   4.24127685439018 0.239284014710223
 39   4.08991729502358 0.207917910584105
 40   3.93863187039456 0.177651857237311
 41   3.78738418691691 0.148544671783055
 42   3.63614819400995 0.120641249929687
 43   3.48490536730207 0.093975812299336
 44   3.33364280758163 0.0685737709684301
 45   3.18235193126899 0.0444527874697126
 46   3.03102753093344 0.0216234069579249
 47   2.87966706299669 8.95180875052485e-05
 48   2.72827007542368 -0.0201512092005051
 49   2.57683772553526 -0.0391068253557133
 50    2.4253723618581 -0.0567905085232549
 51   2.27387715811191 -0.0732198764768606
 52    2.1223557950718 -0.0884162225127448
 53   1.97081218940988 -0.102403705146722
 54   1.81925026938422 -0.115208524461715
 55    1.6676737966014 -0.126858115603191
 56   1.51608623185421 -0.137380384233396
 57    1.3644906417628 -0.146803001541004
 58   1.21288964193236 -0.155152769145903
 59   1.06128537172367 -0.162455058000496
 60  0.909679495532865 -0.168733320765686
 61  0.758073225636558 -0.174008674295705
 62  0.606467362080435 -0.178299547625748
 63  0.454862345662704 -0.181621390833105
 64  0.303258320689411 -0.183986440869511
 65  0.151655204776006 -0.185403541502743
 66  5.27634849033413e-05 -0.185878015525678
 67  -0.151549312009959 -0.18541158819598
 68  -0.303151325768106 -0.184002361403297
 69  -0.45475349783527 -0.181644838382623
 70  -0.60635588629873 -0.178329999036717
 71  -0.757958312172293 -0.174045426258642
 72  -0.909560288905584 -0.168775484194859
 73  -1.06116095871107 -0.162501550223918
 74   -1.2127590384188 -0.155202303494779
 75    -1.364352778172 -0.146854073980531
 76  -1.51593993691268 -0.137431256823556
 77  -1.66751777919669 -0.12690679683332
 78  -1.81908309831912 -0.115252746867704
 79  -1.97063227091415 -0.102440901076652
 80  -2.12216134801484 -0.0884434994149876
 81  -2.27366618695832 -0.0732339935824382
 82  -2.42514262751269 -0.056787857205834
 83  -2.57658671431948 -0.0390834156991191
 84  -2.72799496648876 -0.0201026653155355
 85  -2.87936469448191 0.000167951728334418
 86  -3.03069436508324 0.0217368464856495
 87  -3.18198401848403 0.0446066771155095
 88  -3.33323574893472 0.0687738375791085
 89  -3.48445427431679 0.094228009006213
 90  -3.63564764335758 0.120951693260025
 91  -3.78682816595725 0.148919579398671
 92  -3.93801370690613 0.178097497524988
 93  -4.08922956068224 0.208440581146523
 94  -4.24051122617086 0.239890075359665
 95    -4.391908514026 0.272367977903576
 96  -4.54349150250882 0.305768369122986
 97  -4.69535879295028 0.339943877070233
 98  -4.84764804351977 0.374685293399458
 99  -5.00054739675414 0.409692120566976
100  -5.15430348747116  0.44453240791607
101  -5.30921694187891 0.478593135913674
102  -5.46561208977291 0.511030685052657
103  -5.62377517134457 0.540748417224947
104  -5.78390666908505 0.566452397699816
105  -5.94648700706612 0.586857395861991
106  -6.11214276420648 0.600856919477592
107  -6.28015940152444 0.607606892274157
108  -6.45070712828689 0.606615607076911
109  -6.62431068562594  0.59737833487343
110  -6.80220722515316 0.578968958549081
111  -6.98883897422919 0.548917574148196
112  -7.19895874192997 0.498861857475523
113  -7.41477840706464 0.420393022255002
114     -7.61601084836 0.295899371547931
115  -7.76132841470376 0.105719468028722
116  -7.79029023680335 -0.168650198183496
117  -7.37649578673715 -0.990365245135006
118  -7.91251818493954 -0.509149080435989
119  -8.13647284554463 -0.0259205228887815
120  -8.20364372097519 0.477128098570381
121  -8.12543791195101 0.958758633382765
122  -7.64296233552662  1.69210702285645
123  -6.85845180022182  2.07236800551049
124  -5.97991674828041  2.06193090186647
125  -5.13861975843106  1.78530001228358
126  -4.34014211119968  1.39330713839206
127  -3.54533829774991 0.984933593055511
128  -2.72692103466159 0.609489087488187
129   -1.8710157029744 0.313761124623645
130  -0.980128596380438 0.137331985365237
131  -0.0249050690777861 0.686845417783354
132  0.860866070587112 0.745195700316673
133   1.73136657569708 0.923702605814401
134     2.578440838801  1.21425745331681
135   3.40608695042428  1.58655356852948
136   4.24191178532825  1.99259011631585
137   5.18104550466516  2.37676851206229
138   6.23839916107112  2.58288727104585
139   7.32459505809852  2.41033035481016
140   8.20766378390317  1.73088967847994
141    8.5499929488102 0.662929289595882
142   8.42000282859851 -0.0412812287593389
143    8.0505927493465 -0.673469051426317
144   7.51008920826207 -1.19266278344577
145   6.83331415048595 -1.65397709690477
146   6.05534971232996  -2.0983293353602
147    5.9115353260603 -2.16384099716822
148   5.88031669769039 -2.17735015169072
149   5.84813230626903 -2.19103629041867
150   5.80902011979842 -2.20737230849201
151   5.76262600056295 -2.22636498682906
152   5.71041715680387 -2.24727910013293
153   5.65331124467591 -2.26964065423044
154   5.59151891502966 -2.29327643487682
155   5.52477991454934 -2.31819460936722
156   5.45245157220788 -2.34453143107391
157   5.37290444648348  -2.3727456217334
158   5.27626459984441 -2.40603508618809
159   5.16653664707981 -2.44262352413793
160    5.0507699007081 -2.47995256994767
161   4.93065933340784 -2.51741790301451
162   4.80719150238022 -2.55468686534542
163   4.68106137278645 -2.59153063188414
164   4.55277083797192 -2.62777881647696
165   4.42268022855918 -2.66329837399109
166   4.29104749889731 -2.69798139358217
167    4.1580589128865 -2.73173777264835
168   4.02385192179705  -2.7644909082402
169   3.88853139998974 -2.79617523528964
170    3.7521807431762 -2.82673483931336
171   3.61486925805979 -2.85612265068067
172   3.47665699517751 -2.88429992201774
173   3.33759786971757 -2.91123581850256
174   3.19774165578856 -2.93690703046553
175    3.0571352466898 -2.96129736453071
176   2.91582343982875 -2.98439729559162
177   2.77384941555154 -3.00620347558211
178   2.63125502067422 -3.02671820164522
179   2.48808092950343 -3.04594884917926
180   2.34436673037354 -3.06390727624323
181   2.20015096943266 -3.08060920599706
182   2.05547117253723 -3.09607359380009
183   1.91036385876069 -3.11032198556375
184   1.76486455400878 -3.12337787404188
185   1.61900780982641 -3.13526605993184
186   1.47282723020408 -3.14601202487837
187   1.32635550771696 -3.15564132363034
188   1.17962446941364 -3.16417900261395
189   1.03266513232525  -3.1716490520002
190  0.885507768146199 -3.17807389794111
191  0.738181976443094 -3.18347394104789
192  0.590716765613168 -3.18786714643399
193  0.443140640704826 -3.19126868981021
194  0.295481697117026 -3.19369066326416
195  0.147767719110204 -3.19514184353669
196  2.62819919532957e-05 -3.19562752486004
197  -0.147715143211931 -3.19514941776051
198  -0.295429083825621 -3.19370561464452
199  -0.443087959573692 -3.19129062245864
200  -0.590663977859309 -3.18789546220424
201  -0.738129031501881 -3.18350783455835
202  -0.885454600134672 -3.17811235026766
203  -1.03261165641326 -3.17169082331773
204  -1.17957057811812 -3.16422262412592
205  -1.32630106715166 -3.15568508917819
206  -1.47277207633462 -3.14605398266206
207  -1.61895174479958 -3.13530400479646
208  -1.76480734264778 -3.12340934079054
209  -1.91030522534722 -3.11034424374444
210  -2.05541079804191  -3.0960836443866
211  -2.20008848941069 -3.08060378034629
212  -2.34430173381612 -3.06388283767134
213  -2.48801295902933 -3.04590159746409
214  -2.63118357456072 -3.02664408074119
215  -2.77377395224356 -3.00609818483022
216  -2.91574338573598 -2.98425630472609
217  -3.05705000830425 -2.96111593282361
218  -3.19765063746526 -2.93668023040956
219  -3.33750049892565 -2.91095856450166
220  -3.47655275776127 -2.88396700462429
221  -3.61475774723318 -2.85572877695917
222  -3.75206172791073 -2.82627467987505
223  -3.88840492161093 -2.79564347832763
224  -4.02371843267048  -2.7638823203046
225   -4.1579194789594 -2.73104726457637
226  -4.29090409947511 -2.69720408732511
227  -4.42253620224995 -2.66242966108824
228  -4.55263154122714 -2.62681439021536
229    -4.680935130686 -2.59046646087542
230  -4.80709093114453 -2.55351905344912
231  -4.93060311459775 -2.51614233957732
232  -5.05078529498614 -2.47856415259141
233  -5.16666496999471 -2.44111405846005
234  -5.27658922739023  -2.4043831083103
235  -5.37399954563265 -2.37075996868421
236  -5.45387173393055 -2.34237329452426
237  -5.52643422423882 -2.31590008252311
238  -5.59336702778333 -2.29086365793653
239  -5.65531358182054 -2.26712789144664
240  -5.71252705942476 -2.24468791588863
241  -5.76482592049702 -2.22370595324878
242  -5.81126191482824 -2.20466853304651
243  -5.85040159041609 -2.18829869850092
244  -5.88259137469359  -2.1745913725585
245  -5.91382099136884 -2.16106005813616
246  -6.05771902465265 -2.09542586244239
247  -6.83601478995686 -1.65092336316542
248  -7.51447795803756  -1.1939066022325
249  -8.06085404204222 -0.678875415690526
250  -8.43775077059839 -0.0492319198872227
251  -8.57587627312409 0.655221502607028
252  -8.24601054655297  1.72838392900526
253  -7.37049492775305  2.41847601263267
254  -6.28532539021538  2.60008989294836
255  -5.22668535497782  2.39697270642122
256  -4.28549275688746   2.0096256897204
257  -3.45193270952199  1.59964383158963
258  -2.62662616710347  1.22298073917366
259  -1.78082316481612 0.928566740128934
260  -0.909669838493381   0.7470429904273
