// Id               X                Y
  1  -0.0916129922638065  6.63953839577273
  2  0.982043939592931  6.60506467642722
  3   2.03227833386159  6.39873043903398
  4   3.06183572204375  6.08306163890241
  5     4.002656944489  5.57278168487451
  6   4.77588782842494  4.99045236516839
  7   5.55703156778958  4.32897998899997
  8   6.35389912162556  3.78796684092575
  9   7.21160147153087  3.34573909703821
 10   8.07832370618501  2.91592480682015
 11   8.84026511833459   2.3114653610681
 12   9.07165022604823  1.82907313950775
 13   9.06844244741811  1.29847075391525
 14   8.78557462673864 0.855467273590257
 15    8.3072072016383 0.654442241544562
 16   7.77897339713221  0.74333303097531
 17   7.38730678861033 0.971449760921279
 18   7.13027945440629  1.20146898132664
 19   6.96055681907563  1.39183342134188
 20   6.86023373356718  1.51926811559291
 21   6.78970824050996  1.61562682050485
 22   6.73215660990794  1.69834306645525
 23    6.6801164397657  1.77629576675811
 24   6.62956373253239  1.85467112275341
 25   6.57833602749874  1.93675354427034
 26   6.52500975465824  2.02471090696467
 27   6.46876834993545  2.12004684655411
 28   6.40907197322163  2.22366210271793
 29   6.34557364758546  2.33606004077695
 30   6.27797135662441  2.45742790750655
 31     6.205956224435  2.58769376052009
 32   6.12917168043491  2.72654745957979
 33   6.04719875054315  2.87345474253727
 34    5.9595574969292  3.02766889365507
 35   5.86572394164174  3.18824592404496
 36   5.76515929016581  3.35406602199389
 37   5.65734760321604  3.52386275909567
 38   5.54183685008538  3.69626031127588
 39   5.41827758171132  3.86981790713395
 40    5.2864535491955  4.04307960514962
 41   5.14629969833862  4.21462628575487
 42   4.99790507084108  4.38312563022386
 43   4.84150089646695  4.54737528592963
 44   4.67743690351897  4.70633484115156
 45   4.50615080424189  4.85914380571826
 46   4.32813643800506  5.00512516308759
 47   4.14391512998852  5.14377646027136
 48   3.95401297912678  5.27475204463714
 49   3.75894482655608   5.3978405417073
 50   3.55920420955004  5.51294112833033
 51   3.35525790388384  5.62004106449994
 52   3.14754357328696  5.71919580045665
 53   2.93646930498001  5.81051208107375
 54   2.72241417372348  5.89413391608832
 55   2.50572930412905  5.97023102223516
 56   2.28673914347251  6.03898927396051
 57   2.06574281678665  6.10060273421177
 58   1.84301553198535  6.15526691497413
 59   1.61881005488686  6.20317300414722
 60   1.39335829700951   6.2445028742776
 61   1.16687306294129  6.27942475307354
 62  0.939549995867592  6.30808948428709
 63  0.711569744578303  6.33062734174046
 64  0.483100356871736  6.34714538140082
 65  0.254299885666447  6.35772532921287
 66  0.0253191773967183  6.36242200852653
 67  -0.203695201284062  6.36126231268052
 68  -0.432597952122392  6.35424472740189
 69  -0.661242008289234  6.34133940544843
 70  -0.889475532077468  6.32248879326372
 71  -1.11713900450538  6.29760880703966
 72  -1.34406245694077   6.2665905542063
 73  -1.57006288392407  6.22930259692809
 74  -1.79494186214114  6.18559375798794
 75  -2.01848338393405  6.13529647824679
 76  -2.24045189640096  6.07823075084965
 77  -2.46059052133036  6.01420868292879
 78  -2.67861942008037  5.94303977307768
 79  -2.89423426512644  5.86453704407935
 80  -3.10710479162649  5.77852423552419
 81     -3.31687343511  5.68484433716524
 82  -3.52315412542484   5.5833698220732
 83  -3.72553141675586  5.47401499836759
 84  -3.92356030668266  5.35675090009548
 85  -4.11676734795099  5.23162301644078
 86  -4.30465397571302  5.09877182492072
 87   -4.4867032942446  4.95845546212567
 88  -4.66239173287615  4.81107291475143
 89  -4.83120674587033  4.65718498124049
 90  -4.99267085584142  4.49752929305019
 91  -5.14637077991261  4.33302539297508
 92  -5.29198845997943  4.16476664837987
 93  -5.42932922819936  3.99399763623809
 94  -5.55834181964517  3.82207807091614
 95  -5.67912587935408  3.65043655938181
 96  -5.79192479665546  3.48051879374921
 97  -5.89710446901936  3.31373499669319
 98  -5.99512116995231  3.15141073265456
 99  -6.08648349171889   2.9947440026149
100  -6.17171411277631  2.84477019859156
101  -6.25131697571505  2.70233514037044
102  -6.32575465667031  2.56807499543348
103  -6.39543971257572  2.44240024204185
104  -6.46074315689972  2.32547877322495
105  -6.52202357038993   2.2172104374178
106  -6.57968246865533  2.11718118398292
107  -6.63425650400523  2.02457851438886
108  -6.68656670961778  1.93803954590312
109  -6.73796320755879  1.85538603507844
110  -6.79074204319191  1.77316978242354
111  -6.84891742549263  1.68586762521139
112  -6.91998205435384  1.58416419796026
113  -7.02093846176613  1.44928589350557
114   -7.1885794697382  1.25030219476771
115  -7.43945522280733  1.00994674031273
116  -7.82189420520445 0.764538543895838
117  -8.34602229538972 0.646237807235551
118  -8.83638039215643 0.815587384358793
119  -9.14796379885845   1.2379241233242
120  -9.18300298491603  1.76628497405302
121  -8.97479817585214  2.25836815131701
122  -8.22698988808662  2.88259714222684
123   -7.3656608785442  3.31713688473044
124  -6.50874461490213  3.75495998008591
125  -5.71038847957565  4.28828600174129
126  -4.93539153745036  4.93851313341056
127  -4.17083347940058  5.52671089052252
128  -3.23168020682454  6.05143624685427
129  -2.20137137194388  6.37567438014461
130  -1.15126370200789  6.52871343870309
131  -0.0762086938571579  7.22446007761251
132   1.01100260612747  7.18811940808282
133   2.08000802768276  6.98273786237456
134   3.12229021140907  6.66440314943971
135   4.08971275543059  6.15642536624829
136   4.99356236461022  5.54085804641874
137   5.83998831567766  4.85291968383474
138   6.74661102652207  4.24970874791672
139   7.69725040950812  3.71864167061115
140    8.6390038890159   3.1634254342107
141   9.39633424148993  2.36990679032247
142    9.6137507618778  1.70854185850741
143   9.53796446626477  1.01927602831113
144   9.15082886037019 0.447010181623353
145   8.60450014319446 0.029667447740239
146   8.63507358563352 -0.671013728325626
147   8.49541445026187 -0.915660957212137
148    8.2979940047765 -1.10761309771871
149   8.07585563641781 -1.26267061167143
150   7.83487245585085  -1.3828053621582
151   7.58224559568781 -1.46651605000423
152   7.32353213663837 -1.51385905551656
153   7.06359329200994 -1.52654197155642
154   6.80661348797744 -1.50730695137779
155   6.55596041456039  -1.4593778701221
156   6.31423419455678 -1.38608380869313
157   6.08332168963692 -1.29069811651527
158   5.86445181378431 -1.17637259446739
159    5.6582841546515 -1.04608554189624
160   5.46499935018877 -0.902607356403234
161   5.28437609960521 -0.748484279502519
162   5.11585689756743 -0.586033537390759
163   4.95860540391809 -0.417345891127972
164   4.81155768386386 -0.244293565378484
165   4.67346937936392 -0.0685423387625391
166   4.54296059204136 0.108433035730998
167    4.4185598502443 0.285330816526484
168   4.29874809535935 0.461002558685553
169   4.18200315920263 0.634432909310703
170   4.06684461246137 0.804720460005433
171   3.95187802786999 0.971061381883615
172   3.83583664159092  1.13273740536848
173   3.71761737673333  1.28910907320771
174   3.59630768842428  1.43961412577218
175   3.47120016095907   1.5837696545687
176   3.34179335355132  1.72117575050796
177   3.20777963288663  1.85151818790215
178   3.06902284175459  1.97456830098658
179   2.92552988665419   2.0901793048882
180   2.77742040104016  2.19827938108427
181   2.62489780058851  2.29886250913432
182   2.46822380961044  2.39197819056337
183    2.3076973724576  2.47772101809143
184   2.14363802145472  2.55622070876815
185   1.97637329308882  2.62763290773154
186   1.80622958716549  2.69213085505567
187    1.6335258398109  2.74989789602779
188   1.45856944079997  2.80112077640481
189   1.28165391258045  2.84598366492898
190   1.10305795465452  2.88466286032858
191  0.923045532437753  2.91732215507378
192  0.741866752776227  2.94410883792256
193  0.559759320493648   2.9651503215164
194  0.376950413586653  2.98055138189657
195  0.193658850355339  2.99039199609292
196  0.0100974505650298  2.99472576365209
197  -0.173524485059064  2.99357889910134
198  -0.356998637078648  2.98694978512449
199  -0.540115122415711  2.97480908034374
200  -0.722659991019721  2.95710038038916
201  -0.904412817230353  2.93374143558355
202  -1.08514444984213  2.90462593229875
203   -1.2646150022266  2.86962584729318
204  -1.44257218754513   2.8285943849792
205  -1.61875013408905  2.78136950706164
206  -1.79286885239868  2.72777806356105
207  -1.96463456981672  2.66764053586685
208   -2.1337412009339  2.60077640851266
209  -2.29987328576339  2.52701019855141
210  -2.46271080234301  2.44617818880959
211  -2.62193634366175  2.35813592725814
212  -2.77724522699531  2.26276655326285
213  -2.92835914404422  2.15998996537702
214  -3.07504390042753  2.04977272047409
215  -3.21713153918356  1.93213832564881
216  -3.35454658973941  1.80717726825046
217  -3.48733527309573  1.67505581817917
218  -3.61569530744525  1.53602250971496
219  -3.74000279669735  1.39041147579514
220  -3.86083203709936  1.23864256357804
221  -3.97896441287935  1.08121924748237
222  -4.09538399799008 0.918726350101877
223  -4.21125963371004 0.751830001349944
224  -4.32791533220941 0.581281881218447
225  -4.44679214678813 0.407928773192147
226  -4.56940487523217 0.232727246300099
227  -4.69729634015503 0.0567623156691632
228  -4.83199097828278 -0.118731576776385
229  -4.97494846736433 -0.292348983049459
230  -5.12751730443232 -0.462492766934415
231  -5.29088760947138 -0.627355496170795
232  -5.46604188559838 -0.784903851732089
233  -5.65370199627341 -0.93286697077666
234  -5.85427029343772 -1.06872987893373
235  -6.06776278014378 -1.18973367960295
236  -6.29373256405612 -1.29288501837547
237  -6.53118286550746 -1.37497896322705
238  -6.77847109163481 -1.43264337548138
239  -7.03321095913014 -1.46242305996827
240  -7.29219350984923 -1.46094519169038
241  -7.55137582077691 -1.42524324725603
242  -7.80598808700182 -1.35331698917841
243  -8.05042624018679 -1.24485251201157
244  -8.27791898026069 -1.10107040584509
245  -8.48319232490953 -0.919516121151915
246  -8.63423906986615 -0.682757004080581
247   -8.6318716823793 0.0172203078265677
248  -9.19977242494001 0.404858290686536
249  -9.61520205791522 0.956410628913381
250  -9.72145477898506  1.64083826206569
251  -9.52473128330893  2.30804643413235
252  -8.79064055963535  3.12231862056397
253  -7.85426639119419   3.6862694637278
254  -6.90302191082921  4.21578402379619
255  -5.99325474997541  4.81353210469014
256  -5.14307963373904  5.49644245640095
257  -4.24080285303626  6.11468996629742
258  -3.27876435852528  6.63436972725099
259  -2.23780773409863  6.95873513960795
260   -1.1606161341402  7.11700267706019
