// Id               X                Y
  1  -0.319882056254147    4.909820273151
  2  0.691723070270995  4.88848538377255
  3   1.74312535001981  4.74009907461246
  4   2.77156618060159  4.42634429466468
  5   3.76751992737323  4.03534086724642
  6   4.72446903142673  3.58811662209687
  7   5.68930403240912   3.1801214035639
  8   6.64864496789319  2.81292444482211
  9   7.54837492216012   2.4707482657594
 10    8.3961549010143  2.07345870301285
 11   9.15516268406278  1.53886590718367
 12   9.48407467887911   1.1264757794387
 13   9.67727355503721 0.619237692670795
 14   9.60314684775349 0.00721495010320588
 15   9.21711873759831 -0.371189744259056
 16   8.53631557716672 -0.348680098954068
 17   7.63898208832534 0.471439717160341
 18   7.38050235942912 0.745227744670438
 19   7.26149950517731 0.872354091738999
 20   7.18429820779984 0.954689662646123
 21   7.12309682588225  1.01978345471893
 22   7.06695188568258  1.07925301444676
 23   7.01095961568873  1.13837545655866
 24   6.95267213488414  1.19958171842531
 25   6.89081412150487  1.26422054805591
 26   6.82459249493026  1.33295085065785
 27   6.75358749243928  1.40609929073655
 28   6.67753709747981  1.48375102004829
 29   6.59628608941387  1.56586663050742
 30   6.50973137795285  1.65231390605211
 31   6.41780295643455  1.74289596468913
 32   6.32044887474582  1.83736508476307
 33   6.21762698525344  1.93543318315907
 34   6.10929971539574  2.03677918580263
 35   5.99543128847239  2.14105477834007
 36   5.87598670785016  2.24788900718256
 37   5.75093213407762  2.35689207198872
 38   5.62023635720263  2.46765851369398
 39   5.48387311073373  2.57976995404773
 40   5.34182398915878  2.69279752042481
 41   5.19408173717952  2.80630407991783
 42   5.04065368270974  2.91984639825567
 43   4.88156509160911  3.03297732648068
 44   4.71686223295048  3.14524809898194
 45   4.54661496169343  3.25621079991679
 46   4.37091865290277  3.36542102234009
 47   4.18989535932071  3.47244070791319
 48    4.0036941120684  3.57684111840991
 49   3.81249034051366  3.67820585763718
 50   3.61648444776366  3.77613383821536
 51   3.41589963689164  3.87024207555702
 52   3.21097913316599  3.96016819335788
 53   3.00198298317607  4.04557254072885
 54   2.78918462895941  4.12613984816965
 55   2.57286745324331  4.20158038353524
 56   2.35332147309286  4.27163060485394
 57   2.13084032830096   4.3360533396239
 58   1.90571867344351  4.39463754667093
 59   1.67825004395507    4.447197735143
 60   1.44872523086057  4.49357312566274
 61   1.21743116826913  4.53362664207219
 62  0.984650313235789  4.56724382010643
 63  0.750660478892309   4.5943317132787
 64  0.515735068024149  4.61481786754989
 65  0.280143644523363   4.6286494259364
 66  0.0441527734406706   4.6357924127054
 67  -0.191972944063385  4.63623123460098
 68  -0.42796971725252  4.62996842388089
 69  -0.663573371511413  4.61702463499552
 70  -0.89851819096235  4.59743889366207
 71  -1.13253587466053  4.57126908403628
 72  -1.36535468066162  4.53859264684075
 73  -1.59669882842533  4.49950744887708
 74  -1.82628822441961  4.45413277257229
 75  -2.05383856800568  4.40261036339287
 76  -2.27906188418361  4.34510546351506
 77  -2.50166751593232  4.28180775264338
 78  -2.72136359103775  4.21293211212649
 79  -2.93785895597005  4.13871912758292
 80  -3.15086554248538  4.05943524934768
 81  -3.36010110193789   3.9753725403767
 82  -3.56529220968317  3.88684795858626
 83  -3.76617741061202  3.79420214488594
 84  -3.96251035100056  3.69779771805835
 85  -4.15406272609167  3.59801711042206
 86  -4.34062687106696   3.4952600100179
 87  -4.52201783752954  3.38994050154421
 88  -4.69807482804668  3.28248401552286
 89  -4.86866190492114   3.1733242005803
 90  -5.03366794147306   3.0628998264482
 91   -5.1930058391742  2.95165180633232
 92  -5.34661108672656  2.84002039910513
 93  -5.49443978352129  2.72844261758375
 94  -5.63646628736117  2.61734983230808
 95  -5.77268067401926  2.50716552362389
 96  -5.90308621476551  2.39830310044681
 97   -6.0276970894018  2.29116367237063
 98   -6.1465365601564  2.18613363124264
 99  -6.25963584193881  2.08358186417268
100  -6.36703392712474    1.983856372017
101  -6.46877867634489   1.8872799861521
102  -6.56492960380185  1.79414472522445
103  -6.65556302846024  1.70470404342754
104   -6.7407807505997  1.61916165897815
105   -6.8207243855524  1.53765454771967
106  -6.89559943623615  1.46022548620331
107  -6.96571716660394  1.38677603885201
108  -7.03157075726939  1.31698137054555
109  -7.09398085869414  1.25012713586288
110  -7.15438792045753  1.18478045345796
111  -7.21546722809909  1.11809342996854
112    -7.282479424295  1.04426150141714
113  -7.36634666894996 0.950977416720482
114  -7.49159850780798 0.810251482341017
115   -7.7462489473256 0.522625905093607
116  -8.60212885009538 -0.34053695822307
117  -9.28412464901755 -0.415227105134797
118  -9.69899807289354 -0.0718702324493414
119  -9.82612600286748 0.513532414072143
120  -9.67949488740578  1.03188258334993
121  -9.38290766059445  1.46422032191426
122  -8.65084500044729  2.03152623068791
123  -7.81645230322264  2.44407324461218
124   -6.9298218983004  2.78306509891179
125  -6.02487534527172  3.11685783606132
126  -5.12401284831279  3.48265005928763
127  -4.24409488033101   3.8841887568216
128  -3.36048833646924  4.27537229045895
129  -2.45413080012306  4.58872581297665
130  -1.38634362461538  4.77801063212844
131  -0.0749528289131841  5.43939841293859
132    1.0051234622743  5.39703971371013
133    2.0697359487085  5.22019514061699
134   3.09004628054356  4.91839381139324
135   4.07382171271271  4.53500890443889
136   5.03458433242519  4.11857825484919
137   6.00008863033752  3.71415871620123
138   6.98471851274921  3.33034337898894
139   7.97218673131907  2.92202867752373
140   8.92074798059647  2.39727662133049
141   9.70867775571619  1.63921053566348
142   10.0167270221736  1.01765227221864
143   10.1190052116883 0.334606274253056
144    10.003873596438 -0.33162166020632
145   9.71244659544488 -0.91962183174943
146   9.27138597323067  -1.4394246388107
147   9.08026410638591 -1.59070715149926
148    8.8616191336023 -1.72820141225978
149   8.62985624949107 -1.84059021155601
150   8.38842797089944 -1.92716171235846
151   8.14049731360743 -1.98799514047209
152   7.88936447129365 -2.02371385612655
153   7.63800338134764 -2.03555301811125
154   7.38890644645377 -2.02522035130735
155   7.14407614568524 -1.99473819405801
156   6.90501903752985 -1.94630641532275
157   6.67276778944136 -1.88218239936234
158   6.44793844781071 -1.80458767378681
159    6.2307982012546 -1.71564185609761
160   6.02133250160028 -1.61731929276683
161   5.81930829531426 -1.51142411062964
162    5.6243310904367 -1.39957968615285
163    5.4358943608785 -1.28322874265656
164   5.25342073376365  -1.1636407502606
165   5.07629513909792  -1.0419239018511
166   4.90389056625537 -0.919039557094993
167   4.73558732076765 -0.795817617563181
168   4.57078676831081 -0.672971784766782
169   4.40892054482844 -0.551114046959354
170   4.24945614525472 -0.430768041797839
171   4.09189970914595 -0.312381159918476
172   3.93579671972896 -0.196335401757974
173   3.78073123466299 -0.0829570893798505
174   3.62632417679862 0.027474421603179
175   3.47223113143138  0.13471887741634
176   3.31814002030911 0.238567975490023
177   3.16376894828338 0.338838832124934
178   3.00886444285851 0.435368020573749
179   2.85320022864956 0.528006181324293
180   2.69657659914521 0.616613249832989
181   2.53882037103488 0.701054377155857
182   2.37978533739986 0.781196630893322
183   2.21935308138413 0.856906555734417
184   2.05743397637368 0.928048646323842
185   1.89396818442263 0.994484745004538
186   1.72892647071492  1.05607433001429
187   1.56231067451764  1.11267561314086
188    1.3941537109576  1.16414732578468
189   1.22451901725995  1.21035104290743
190   1.05349939677746  1.25115387719653
191  0.881215250529967  1.28643137065437
192   0.70781221690546  1.31607041603679
193  0.533458264810765  1.33997205372715
194  0.358340304032589  1.35805400823876
195  0.182660389601647  1.37025285037229
196  0.00663160554231248   1.3765256943914
197  -0.169526281414872  1.37685136325054
198  -0.34559130484024  1.37123097826453
199  -0.521343823993356  1.35968795242711
200  -0.696570997482211  1.34226738893881
201  -0.871071112381213  1.31903490862393
202  -1.04465767848269  1.29007495203785
203  -1.21716320142476  1.25548862429349
204  -1.38844255471222  1.21539117280925
205  -1.55837587991534  1.16990920976952
206   -1.7268709574562  1.11917781112145
207  -1.89386500817231  1.06333764097124
208  -2.05932590884179  1.00253226244705
209  -2.22325283312646 0.936905801388084
210  -2.38567636222021 0.866601125605584
211  -2.54665814508138 0.791758688497577
212  -2.70629022343612 0.712516161152212
213   -2.8646941675564 0.629008943044594
214  -3.02202019022845 0.541371601234555
215  -3.17844641354949 0.449740246574734
216  -3.33417845259708 0.354255818854719
217  -3.48944945005475 0.255068226947952
218  -3.64452064749229 0.152341279399304
219  -3.79968251535012 0.0462583475297463
220  -3.95525638920961 -0.0629712739022303
221   -4.1115964791021 -0.17510530795615
222  -4.26909203470978 -0.28986069621236
223  -4.42816936375153 -0.406904975632099
224  -4.58929331308606 -0.525846717073284
225  -4.75296773019785 -0.646224898476353
226  -4.91973432457877 -0.767497101794535
227  -5.09016924313764 -0.889026478155359
228  -5.26487656323928 -1.01006753257992
229  -5.44447779845149  -1.1297509511692
230  -5.62959642001546  -1.2470679438587
231  -5.82083634541435 -1.36085491728932
232  -6.01875336942517 -1.46977973321215
233  -6.22381865969917 -1.57233134676982
234   -6.4363737649112  -1.6668152383236
235  -6.65657714885926 -1.75135771080609
236  -6.88434312122195 -1.82392275147827
237  -7.11927521986527 -1.88234565406105
238  -7.36059761455784 -1.92438784268788
239  -7.60708995658157 -1.94781719828057
240  -7.85703380059686 -1.95051745296163
241  -8.10818456367106 -1.93062780395462
242     -8.35779980326  -1.8867044095612
243  -8.60280660675768 -1.81785619769086
244  -8.84025856218081 -1.72369332024225
245  -9.06681041000432 -1.60456433138209
246  -9.26773174867034 -1.47015417601247
247  -9.74849749300832 -0.991072309395115
248  -10.0888666833026 -0.429180230049918
249  -10.2571256399405 0.223585140563167
250  -10.2044673519268 0.911709869815178
251   -9.9345361184792  1.55125579619276
252   -9.1808994698409  2.34438742471704
253  -8.24252557924467  2.89298236862469
254  -7.25272540760784  3.30932407632466
255  -6.25714237342994  3.68893286159449
256  -5.26714413626054  4.08215592507688
257  -4.27319174003901  4.48794165658186
258  -3.26072254476413  4.85891256147913
259  -2.22021832612894  5.15112685610346
260  -1.15675570549169  5.34713913473594
