// Id               X                Y
  1  -0.116794041523104  15.2823946819034
  2  0.957562205927307  15.2308836693422
  3   2.02053165444652  15.0044551024271
  4   3.01160577580473  14.5977705657675
  5   3.94254045113695  14.0629909211494
  6   4.74576156191986  13.3349142436961
  7    5.3432923945184  12.4512240530308
  8   5.86027970634338  11.5590375316769
  9   6.43229690113171  10.7011642865338
 10   7.04591004990604  9.88858315987144
 11   7.60839965996761  9.00861986031669
 12    7.7529069292593  8.43900969807976
 13   7.68709587250241  7.88239133048228
 14    7.3685944293794  7.43715542224657
 15    6.8759266727791  7.26432804034774
 16   6.21893741373505  7.55603480844276
 17   6.05463580051269  7.72964429467629
 18   5.95927564680902  7.86636637477723
 19   5.87891773070987  8.01348768480869
 20   5.81266722910197  8.17008768833383
 21   5.75953095310492  8.33360755165787
 22   5.71868642434214  8.50232194432864
 23   5.68827495836559  8.67497069692754
 24   5.66688665540642  8.85095230568388
 25   5.65263490327342  9.03004710554134
 26   5.64395775918667  9.21255586391969
 27   5.63912911366846  9.39947032881746
 28   5.63652411419802  9.59659743006901
 29   5.63437361226225  9.80842090443192
 30   5.63065628437428  10.0243556161914
 31   5.62327414270249  10.2430763109691
 32   5.61030705244445  10.4637137524289
 33   5.59005795573905  10.6855585935807
 34   5.56107699205815  10.9079261536298
 35    5.5221721977826  11.1300952415798
 36   5.47241346034534  11.3512911812429
 37   5.41112961467766  11.5706938577918
 38    5.3378986994653  11.7874587855354
 39   5.25253139032867   12.000743515307
 40   5.15504827946189  12.2097342877989
 41   5.04565224545956  12.4136695370809
 42    4.9246976184046  12.6118581664746
 43   4.79265807493853  12.8036916318769
 44   4.65009517902073  12.9886497962674
 45   4.49762923868069  13.1663012247328
 46   4.33591373852623  13.3362990393065
 47    4.1656141114076  13.4983736469426
 48   3.98739111265565  13.6523236284644
 49   3.80188862745729  13.7980058942223
 50   3.60972542451946  13.9353259461636
 51   3.41149018684016  14.0642288023581
 52   3.20773909474741  14.1846908874267
 53   2.99899527845259  14.2967129975764
 54   2.78574955922864  14.4003143188825
 55   2.56846202402279  14.4955274048056
 56   2.34756410105254  14.5823939892805
 57   2.12346090826901  14.6609615094797
 58   1.89653372688341  14.7312802244459
 59   1.66714250937877  14.7934008331064
 60   1.43562836978477  14.8473725124925
 61   1.20231602853999  14.8932413119724
 62  0.967516199527693   14.931048851465
 63  0.731527916293259  14.9608312813181
 64  0.494640800369177  14.9826184694801
 65  0.257137278487809  14.9964333884047
 66  0.0192947580676499  15.0022916802607
 67  -0.218612227859405   15.000201384798
 68  -0.456309893949793  14.9901628198047
 69  -0.693523081116002  14.9721686095943
 70  -0.929973127259978  14.9462038624319
 71  -1.16537571742651  14.9122465032906
 72  -1.39943870149845  14.8702677738709
 73  -1.63185986899594  14.8202329174862
 74  -1.86232467269137  14.7621020723406
 75  -2.09050389589709  14.6958314031206
 76  -2.31605126298708  14.6213745080396
 77  -2.53860100000396  14.5386841470219
 78  -2.75776536381235  14.4477143472098
 79  -2.97313217687319   14.348422954954
 80  -3.18426243409369   14.240774718962
 81  -3.39068809299017  14.1247450061598
 82  -3.59191022327334  14.0003242667603
 83  -3.78739777994225  13.8675233714863
 84  -3.97658737369147  13.7263799314814
 85  -4.15888453489179  13.5769656663555
 86  -4.33366708328432  13.4193947930496
 87  -4.50029129495893  13.2538332560589
 88  -4.65810156466763  13.0805084058428
 89  -4.80644416045853   12.899718470886
 90  -4.94468543758556  12.7118408942946
 91  -5.07223452147966  12.5173383726909
 92  -5.18857001529725   12.316761311664
 93   -5.2932697924573  12.1107454668094
 94  -5.38604247310198  11.9000038252073
 95  -5.46675883618985  11.6853123214819
 96  -5.53548125795424  11.4674897619269
 97  -5.59248933987688  11.2473733119038
 98  -5.63830020056083  11.0257920615423
 99  -5.67368240751569  10.8035425887116
100  -5.69966310586272  10.5813723702306
101  -5.71752836398526   10.359980031538
102  -5.72881669459498  10.1400470393264
103  -5.73530408085669  9.92232594269956
104  -5.73897289537667  9.70784002357371
105  -5.74193643861654  9.49861487871156
106  -5.74601001233338  9.30764442416944
107  -5.75295975338312  9.12263181711653
108  -5.76442690594263  8.94155056402894
109  -5.78206970678082  8.76373550850539
110  -5.80757062284251  8.58911198588842
111  -5.84260267856195    8.418088610425
112  -5.88874352947474   8.2516018941969
113     -5.94728886827  8.09126284392913
114  -6.01904914523917   7.9392517166312
115  -6.10544325507877  7.79624584638889
116  -6.25634576717844   7.6106691557477
117  -6.88392224870973  7.25832346735574
118  -7.39149506608386   7.3805733705098
119  -7.74889844512217  7.79267277371134
120  -7.85570377833766  8.33946400437528
121  -7.74282503889072  8.91023927447032
122  -7.19720003694085  9.80276235076253
123  -6.59577116434407   10.596361854744
124  -6.01703245151906  11.4421426200913
125  -5.49139498332467  12.3360151024547
126  -4.94857882868809  13.1639110826057
127  -4.19882055188238  13.9279051520152
128  -3.29164624418395  14.5208974016039
129  -2.29315020617302  14.9204991335668
130  -1.21069783853463   15.129435203984
131  -0.116168721501046   15.858638703371
132  0.983181838154917  15.8092882471335
133    2.0608251196234  15.5813200783511
134   3.08775626786941  15.1765093391293
135   4.05075000783219  14.6322762837367
136   4.88609718570555  13.9029426216731
137   5.56160314881708  13.0216149920068
138   6.16069105536296  12.0935484382352
139   6.78804211235648  11.1920129376543
140   7.44911334132457  10.3176733811123
141   7.99752735395246  9.36737823709342
142   8.22774084746173  8.70893942240478
143   8.21636731102132  8.01011516256144
144   7.91089274020925  7.37795972351816
145   7.46958097152275  6.82865331831265
146   7.73274289722876    6.148471351913
147   7.83322491066417  5.42329909130767
148   7.48967528928693  5.26022498732802
149   7.10039649346078  5.23663091624765
150   6.71373010022403  5.27873105427123
151   6.33971740200965  5.36473439227213
152    5.9828926934588  5.48991978070925
153   5.64746095218428  5.65133446127711
154   5.33705747912186   5.8448972426135
155   5.05432254449057  6.06575132120685
156   4.80090975025278  6.30921083579979
157   4.57779131650772  6.57162529332317
158   4.38630980843712  6.84893145220068
159   4.22611513137579  7.13407288354671
160   4.09120821909582  7.42191059266564
161   3.97685087745498  7.70664930162967
162    3.8786232233112  7.98463928291098
163   3.79259158935097  8.25363503024095
164   3.71527871697575  8.51224842659516
165    3.6436471492606  8.75965621815352
166   3.57510267297299  8.99543394361103
167   3.50749282201218  9.21944513231137
168   3.43908881960574  9.43175988295928
169   3.36855092992036  9.63259423045292
170    3.2948818383897  9.82226584853394
171   3.21737352955841  10.0011619899456
172    3.1355526585417  10.1697156334418
173   3.04912861111915  10.3283864254906
174   2.95794751172285  10.4776441105837
175   2.86195432930601   10.617953420505
176   2.76116396661095  10.7497604864938
177   2.65564095788739  10.8734814797174
178   2.54548638775253  10.9894942804423
179   2.43083008439764  11.0981336308429
180   2.31182609334671  11.1996896818338
181   2.18864979612274  11.2944093550865
182   2.06149559325823   11.382499668499
183   1.93057461540362  11.4641321471204
184   1.79611232725653  11.5394475942012
185   1.65834610824615  11.6085607260834
186   1.51752296192692  11.6715643948323
187   1.37389748208801  11.7285332881412
188   1.22773014350787  11.7795270976379
189   1.07928592623299  11.8245931961799
190  0.928833241316542  11.8637688806899
191  0.776643105817631  11.8970832359071
192  0.622988510891979  11.9245586668896
193  0.468143932379403  11.9462121396742
194  0.312384942761054   11.962056162131
195  0.155987893042805  11.9720995308572
196  -0.000770358817288855  11.9763478644881
197  -0.157612690451463  11.9748039385782
198  -0.314261942341357  11.9674678319635
199  -0.470441141564897  11.9543368891833
200  -0.62587373336265  11.9354054981371
201  -0.780283832877114  11.9106646767879
202  -0.933396512031652  11.8801014574463
203  -1.08493814099065  11.8436980519963
204  -1.23463681021326  11.8014307762159
205  -1.38222286765245  11.7532687057787
206  -1.52742961517756  11.6991720301553
207  -1.66999421639425  11.6390900632183
208  -1.80965887042086  11.5729588616365
209  -1.94617229695642  11.5006983972093
210   -2.0792915512496  11.4222092343251
211  -2.20878414118381  11.3373686912071
212  -2.33443036007336  11.2460265305233
213  -2.45602570155955  11.1480003475229
214  -2.57338323042193  11.0430710068219
215  -2.68633590200901  10.9309787006098
216  -2.79473910284627  10.8114204021983
217  -2.89847413284867  10.6840495779597
218  -2.99745389437273  10.5484789066001
219  -3.09163253555897  10.4042864033519
220  -3.18102100593476  10.2510248347934
221  -3.26571024802192  10.0882338335656
222  -3.34590302337273  9.91545393312856
223  -3.42195427027969  9.73224203420741
224  -3.49441863616168  9.53818861863573
225  -3.56410263523491  9.33293818259345
226    -3.632117856238  9.11621556876558
227  -3.69993076956994  8.88786179177556
228  -3.76940396451948   8.6478833174566
229  -3.84282347807226  8.39651870456573
230  -3.92290865931697  8.13432745711957
231  -4.01280761646711  7.86231271252315
232  -4.11609474386987  7.58211311094461
233  -4.23679437610476  7.29635058159044
234  -4.37939036721943  7.00924050183259
235  -4.54858696319882  6.72707903056665
236  -4.75029169832462  6.45450778063345
237  -4.98232738927772  6.19872107969364
238  -5.24388131535561   5.9625459562477
239  -5.53377869240509  5.74987408304465
240  -5.85008244276564  5.56523351485189
241   -6.1899476059626  5.41276848164372
242  -6.54993855730568  5.29577324849466
243  -6.92647601891753  5.21952947387472
244  -7.31199476520705  5.20702383826494
245  -7.66513716600776    5.336319235716
246  -7.63080990587984  6.06401235454876
247  -7.43024775079077  6.76466752288594
248  -7.92450980963017  7.26493027227689
249  -8.28865527890177  7.86316762242564
250  -8.35463985440535  8.55706360726216
251  -8.15736353918991  9.22432546685366
252  -7.63996229593403   10.189781597458
253  -6.97665773490806  11.0607028199967
254  -6.34580808012247  11.9572630868921
255  -5.75425077900171  12.8855435457481
256  -5.07168166271374  13.7564655551197
257  -4.25832438941187  14.5114763721436
258   -3.3199046096004  15.1007937176177
259  -2.28884520665194   15.498114694919
260   -1.2092218332463   15.718282288282
