// Id               X                Y
  1  -0.0712110005049348 -0.0476311922822149
  2  0.879777092381319 -0.0596259251856239
  3   1.80768505307906 -0.00636491664452483
  4   2.69685052028685 0.252131205927508
  5   3.51297410937879  0.67565983983698
  6   4.27556079844685   1.1640258573512
  7   5.03318758141729  1.63684042912115
  8   5.82374531104363  2.03565154505093
  9   6.66416249542773    2.305875176484
 10   7.54604435004577   2.3724047950526
 11   8.40274174970019  2.11994748235475
 12   8.77351269763501  1.78225192152736
 13   8.98590960930512  1.29846556755737
 14   8.86192929562236 0.646528823486355
 15   8.26202527227104  0.29636007900293
 16   7.55957084139196 0.700539794643049
 17    7.2500395966939 0.808783290819105
 18    6.9855538157289 0.821588637779353
 19    6.7498582134429 0.779925966861506
 20   6.55441186480914 0.712103019457986
 21    6.4137148505795 0.647293484999047
 22   6.28313934374772 0.577070319543751
 23   6.15478161470833 0.500780175752385
 24   6.02676956298539 0.419960227709109
 25   5.89852335305054 0.336730162818954
 26   5.76973542095618 0.253175365590114
 27   5.64005950880398 0.171037556851631
 28   5.50909284737815 0.0916596190989297
 29   5.37644888694509 0.0160539895904867
 30   5.24181990894598 -0.0550135614529629
 31   5.10500727218328 -0.120964274157579
 32   4.96592736557743 -0.181371936171581
 33   4.82460447039311 -0.235944815365897
 34    4.6811572951096 -0.284516269515731
 35   4.53578188153036 -0.327038974067747
 36   4.38873178379661 -0.363579411371773
 37   4.24029645532688 -0.39431024752335
 38   4.09077949019065 -0.419499156505345
 39   3.94047879137524 -0.439493758535272
 40    3.7896705161714 -0.454703414106424
 41   3.63859794342882 -0.465579361708164
 42   3.48746556899399 -0.472594966630554
 43   3.33643801490412 -0.476227706131354
 44   3.18564282356632 -0.476944093915889
 45   3.03517590490186 -0.475188200463403
 46   2.88510831092786 -0.471373889599303
 47   2.73549312079858 -0.465880463237109
 48   2.58637149293283 -0.459051134829927
 49   2.43777730195007 -0.451193637982097
 50   2.28974013815202 -0.442582284990998
 51   2.14228673748399 -0.433460873297397
 52   1.99544109844253 -0.424045954313787
 53    1.8492236323876 -0.414530101309424
 54   1.70364970880152 -0.405084926576369
 55   1.55872792634505 -0.39586369695224
 56   1.41445838903934 -0.387003478646602
 57      1.27083121009 -0.378626806083642
 58   1.12782541070929 -0.370842914512081
 59  0.985408327961246 -0.363748602729137
 60  0.843535590986928 -0.357428802231297
 61  0.702151666582278 -0.351956926067456
 62  0.561190914664744 -0.347395059730058
 63  0.420579040124599 -0.343794043099604
 64  0.280234793068765 -0.341193481176282
 65  0.140071767632511  -0.3396217140405
 66  1.84566845005106e-07 -0.33909577221352
 67  -0.14007139498937 -0.339621339498603
 68  -0.28023441121671 -0.34119273875502
 69  -0.420578647189047 -0.343792946226198
 70  -0.561190514716422 -0.347393628778276
 71  -0.702151271167533 -0.351955188577703
 72  -0.843535219935527 -0.357426793115036
 73  -0.985408009434335 -0.363746364399001
 74  -1.12782518055229 -0.370840496882573
 75  -1.27083111065087 -0.378624266395695
 76    -1.414458467681 -0.38700088107987
 77  -1.55872823390892 -0.395861111996181
 78  -1.70365029825679 -0.405082430133198
 79  -1.84922455783549 -0.414527773498036
 80  -1.99544241455045 -0.424043877935837
 81  -2.14228849931955 -0.433459131922599
 82  -2.28974240129618 -0.442580960623395
 83  -2.43778012270251 -0.451192808290818
 84  -2.58637492838574 -0.459050869971305
 85  -2.73549722854395 -0.465880822363144
 86  -2.88511314817636 -0.471374917237882
 87  -3.03518152682468 -0.475189923064478
 88  -3.18564928073935  -0.4769465169756
 89  -3.33644534984087 -0.476230812415573
 90  -3.48747381191379 -0.472598716090298
 91  -3.63860710759526 -0.465583693663785
 92  -3.78968059333232 -0.454708252117259
 93  -3.94048974795956 -0.439499018043508
 94  -4.09079126490927 -0.41950475490917
 95  -4.24030895860953 -0.394316115960089
 96  -4.38874489906124 -0.363585507365148
 97  -4.53579546766376 -0.327045294376362
 98  -4.68117118885468 -0.284522862894558
 99  -4.82461848674722 -0.235951795421527
100  -4.96594129418561 -0.181379495161605
101  -5.10502086814019 -0.120972699677439
102  -5.24183287742376 -0.0550232588093629
103  -5.37646086085633 0.0160424673396342
104  -5.50910335571792 0.0916455359746137
105  -5.64006793226655 0.171019964079697
106  -5.76974094071721 0.253153098707028
107   -5.8985249239277 0.336701902421485
108  -6.02676596114955 0.419924667243855
109  -6.15477158482128 0.500736306737605
110  -6.28312182002866 0.577017762806839
111  -6.41368908920657  0.64723265633943
112  -6.55437445093992 0.712033755629483
113  -6.74977738027328 0.779841656340106
114  -6.98546405983079 0.821509587329382
115  -7.24994773199313 0.808715236454322
116  -7.55948193291175  0.70048792298103
117  -8.26195015271589  0.29634613660558
118  -8.86183421090531 0.646460324990987
119  -8.98604959584974  1.29816025076898
120  -8.77421861528794  1.78175568211503
121   -8.4042237067507  2.11951284979968
122  -7.54848718790876   2.3726156426788
123  -6.66773016465822  2.30730357867045
124  -5.82850821699017  2.03950906561205
125  -5.03949036085966  1.64421334843757
126  -4.28605766956059  1.17419052135787
127  -3.53569618878159 0.682654616555394
128  -2.74419119937664 0.240519664749901
129   -1.8836156318146 -0.056818852132457
130  -0.977690961749282 -0.137047937807473
131  -0.00863629250073423 0.555123166866408
132   0.88154640387274 0.530534176052503
133   1.76937541997744 0.602664669383107
134   2.62185803724907 0.864567183969315
135   3.41215857953873  1.28793652879243
136   4.17533612908043   1.7772438129167
137   4.96517787140859  2.25363494674351
138   5.82862958107697  2.65410841057881
139   6.87132192263373  2.88660300007988
140   7.96854523087588  2.81623604971693
141   8.92193888298841  2.22854542874068
142   9.28289302751247  1.58605188354693
143   9.27437352196566 0.836434696530185
144   8.96417384954963 0.141694982889562
145   8.53277627355184 -0.490972434400743
146    8.6045885523135 -1.34203997323057
147   8.59141083148282 -1.55654602320111
148   8.59141082775831 -1.55654602602951
149   8.58361802045385 -1.56201613966516
150   8.55146010519641 -1.58369346115764
151    8.4594346166433 -1.64340398907851
152   8.33921483733548 -1.71972829027249
153   8.20607890944903 -1.80398648581152
154    8.0652771695854 -1.89312153408609
155   7.91900957723748 -1.98517130806214
156   7.76828788502764 -2.07845236133575
157   7.61360709056261 -2.17146659360562
158   7.45521773494652 -2.26294930073557
159   7.29324805491252  -2.3519049297725
160   7.12776757806741 -2.43760189205758
161   6.95882491024147 -2.51953747501846
162   6.78647161109837 -2.59739019025979
163   6.61077704292834 -2.67097280260289
164   6.43183676180486 -2.74019336472292
165   6.24977614551864 -2.80502656858624
166   6.06475040675008 -2.86549448517522
167   5.87694177506526 -2.92165432982309
168   5.68655455156463 -2.97359080937861
169   5.49380886744133 -3.02141123464054
170   5.29893406651689 -3.06524232818983
171   5.10216250211237 -3.10522816050542
172   4.90372421202489 -3.14152882130647
173   4.70384257546237 -3.17431940216661
174   4.50273082055277 -3.20378882091166
175   4.30058919339042 -3.23013808623976
176   4.09760266661338 -3.25357779493872
177   3.89393916381042 -3.27432489955368
178   3.68974833586711 -3.29259898770032
179   3.48516092687256 -3.30861841705219
180   3.28028872893851   -3.322596646473
181   3.07522507717844 -3.33473902510035
182   2.87004580127958 -3.34524019119668
183    2.6648105363074 -3.35428212773419
184   2.45956429910136 -3.36203284323092
185   2.25433924854713  -3.3686456004475
186   2.04915655909664 -3.37425859798137
187   1.84402834148404 -3.37899501124377
188   1.63895954197896 -3.38296330964558
189   1.43394974512631 -3.38625777815507
190   1.22899480153033 -3.38895917922725
191   1.02408820839151 -3.39113549481482
192  0.819222190711205 -3.39284268986229
193  0.614388463862218  -3.3941254418452
194  0.409578696322975 -3.39501778809662
195   0.20478472387808 -3.39554365429166
196  -1.41580772505473e-06 -3.39571724117707
197  -0.204787558715014 -3.39554325869643
198  -0.409581540474253 -3.39501700424383
199  -0.614391322449206 -3.39412428459951
200  -0.81922506748464 -3.39284118195325
201  -1.02409110565695 -3.39113366725002
202  -1.22899772044017 -3.38895707168459
203  -1.43395268631229 -3.38625543925432
204   -1.6389625064365 -3.38296079700905
205   -1.8440313315745 -3.37899239128159
206  -2.04915957951717 -3.37425594536826
207  -2.25434230712748 -3.36864299729081
208  -2.45956740731941 -3.36203037795618
209  -2.66481370946183 -3.35427989373551
210  -2.87004905829928 -3.34523828530321
211  -3.07522844008539 -3.33473754592063
212  -3.28029222199865 -3.32259569267333
213  -3.48516457547835 -3.30861808563993
214  -3.68975216519452 -3.29259937238177
215  -3.89394319729011 -3.27432608925166
216  -4.09760692425621  -3.2535798725463
217  -4.30059369000862 -3.23014112767324
218  -4.50273556392406 -3.20379289448946
219  -4.70384756448856 -3.17432456829609
220  -4.90372943495229 -3.14153513241506
221  -5.10216793490998  -3.1052356611342
222  -5.29893967155258 -3.06525105517785
223  -5.49381459265505 -3.02142121736698
224  -5.68656033038756  -2.9736020700754
225  -5.87694752734515  -2.9216668840031
226  -6.06475604093548   -2.865508342242
227   -6.2497815623273 -2.80504173271332
228  -6.43184185958874 -2.74020983612271
229  -6.61078172487402 -2.67099057927414
230  -6.78647579410863 -2.59740927008828
231  -6.95882853485493 -2.51955785748961
232  -7.12777061831072 -2.43762357776528
233  -7.29325052762885 -2.35192791422796
234  -7.45521970986102 -2.26297355721224
235  -7.61360870396977 -2.17149203876725
236  -7.76828935586425 -2.07847880010169
237   -7.9190112082351 -1.98519836396136
238  -8.06527929448981 -1.89314858699816
239  -8.20608175501047 -1.80401265612364
240  -8.33921837120047 -1.71975251917131
241   -8.4594386428832 -1.64342516963536
242  -8.55146763335846 -1.58370878853154
243  -8.58364358783503 -1.56201777325088
244  -8.59143284361972 -1.55654967670208
245  -8.59143284729163 -1.55654967391348
246  -8.60459633017846  -1.3420450320656
247  -8.53273651189638 -0.49098043830169
248  -8.96415818425148 0.141665227573059
249  -9.27445310468693  0.83636350850979
250  -9.28316867546249  1.58600078550134
251  -8.92216770639198  2.22854339635821
252  -7.96945581533295  2.81740507119354
253  -6.87213831650582  2.88870380779212
254  -5.82854265055455  2.65765461186068
255  -4.96220156020814  2.25947943918502
256  -4.16935951522648   1.7841038621733
257  -3.40611132745206  1.28956078730721
258  -2.62271232236962 0.846673935819224
259  -1.77879421717421 0.548631980634312
260  -0.891057575451799 0.445044256509586
