// Id               X                Y
  1  -0.0834947493090156  1.49776741533801
  2  0.833528427946062  1.52084741286135
  3   1.74905820624702  1.54083932574412
  4   2.65877790694423  1.55732564059845
  5    3.5630357384438  1.54633154861306
  6   4.46091540738544  1.52796391230318
  7   5.35526004422226  1.61346120149814
  8   6.23134297881248  1.81505553492158
  9   7.09738695183197   2.0586042338579
 10   7.98910205640372  2.19234680059092
 11   8.86831160202257  1.97978221068694
 12   9.23044465984052  1.63063627240527
 13   9.40597997282216  1.15057700263413
 14   9.32067493648179 0.639463523661792
 15   8.98942048506587 0.260781686785805
 16   8.26741089509199 0.109511377854924
 17   7.83890149932397 0.151324586314682
 18   7.78212360862959  0.16123599978059
 19   7.72859739515838 0.171485617896496
 20   7.66187847609958 0.185470773318584
 21   7.57341829747215  0.20594468201962
 22   7.46606495024613 0.233531920502651
 23   7.34502637007488 0.267844179506548
 24   7.21470773847892 0.308059316353109
 25   7.07820014304967 0.353185175440097
 26   6.93747050056573 0.402215217856508
 27     6.793657087699 0.454210364526851
 28   6.64732973574523 0.508330225377449
 29   6.49868870547444 0.563833254171694
 30   6.34770618050025 0.620062654467946
 31   6.19422278198868 0.676428607085824
 32   6.03801220713338 0.732392112526858
 33    5.8788246073885  0.78745253164262
 34   5.71641630977697 0.841139307631119
 35   5.55057110536319 0.893007626649917
 36   5.38111679628827 0.942637469182968
 37   5.20793982867873 0.989635417634054
 38   5.03100034704064  1.03363864618131
 39   4.85034950164922  1.07432070335379
 40   4.66614978364214  1.11139897325771
 41   4.47869692955306   1.1446439504129
 42   4.28843839423103  1.17389040027647
 43   4.09597989891558  1.19904973088695
 44   3.90207079183195  1.22012148223911
 45   3.70756205100434  1.23720058487481
 46   3.51333585931051  1.25047698634616
 47   3.32021292982975  1.26022550500743
 48   3.12885712867326  1.26678598009584
 49   2.93971044387383  1.27053701241674
 50    2.7529843481399  1.27186966094746
 51   2.56870327766475  1.27116736069001
 52   2.38677125611094  1.26879452711246
 53   2.20703302618815  1.26509223894269
 54   2.02931583533055  1.26037778003259
 55     1.853451150867  1.25494537664388
 56   1.67928175653256  1.24906673096311
 57    1.5066606595663  1.24299098028501
 58   1.33544681066673  1.23694424956626
 59   1.16550064893257  1.23112910912576
 60  0.996680818358299  1.22572418193689
 61  0.828842335102148  1.22088401420435
 62  0.661835961233447  1.21673921023425
 63  0.495508384517295   1.2133967647989
 64  0.329702840246764  1.21094049972193
 65  0.164259917714113  1.20943151238932
 66  -0.00098159624490788  1.20890855908091
 67  -0.16618389842738  1.20938831654948
 68  -0.331509381022147  1.21086548662075
 69  -0.497119851036253  1.21331272924699
 70  -0.663175729333585  1.21668042959607
 71  -0.829835218888156  1.22089632520033
 72  -0.997253474738693  1.22586504049555
 73  -1.16558187985606    1.231467597645
 74  -1.33496763092853  1.23756099135633
 75  -1.50555395026268  1.24397792460901
 76  -1.67748131792989  1.25052679024138
 77  -1.85089006600005  1.25699193550568
 78  -2.02592434063462  1.26313415247597
 79  -2.20273663229178  1.26869120637259
 80  -2.38149066992827  1.27337810054025
 81  -2.56235856825336  1.27688680044199
 82  -2.74550628275507  1.27888547781379
 83  -2.93106105085619   1.2790181528209
 84  -3.11905802978038  1.27690685656141
 85  -3.30937347500319  1.27215950409172
 86  -3.50166724799938  1.26438621446455
 87  -3.69536644128017  1.25322368504599
 88   -3.8897079877991  1.23836271299955
 89  -4.08382624005911  1.21957182990918
 90  -4.27685192968222  1.19671195823653
 91   -4.4679952057822  1.16974059897884
 92  -4.65660055783281  1.13870698590519
 93  -4.84217160178768  1.10374151056173
 94  -5.02437029877698  1.06504324356966
 95  -5.20299987830951  1.02286836713605
 96  -5.37798147804579 0.977520684000633
 97  -5.54933135199608 0.929344237895509
 98  -5.71714132673194 0.878717787517381
 99  -5.88156220973829 0.826051072119629
100  -6.04278836133705 0.771783111275519
101  -6.20104098657262 0.716383012466962
102  -6.35654721385989 0.660353867350712
103  -6.50951122628627 0.604240282569916
104  -6.66007223504605 0.548639866322819
105  -6.80824162688273 0.494218435315543
106  -6.95380814085624 0.441727453670269
107  -7.09619642628796 0.392019505304676
108  -7.23426423494483 0.346052427959634
109   -7.3660340236331 0.304865283869216
110  -7.48839084937219 0.269503393219508
111  -7.59689806422651 0.240867429496599
112  -7.68632497210141 0.219437297903446
113  -7.75383542792213 0.204674235376079
114   -7.8081060729218 0.193739520152471
115  -7.86596707385114 0.183033878398806
116  -8.29417595910476 0.135057923493159
117  -9.01988701615264 0.267926206561988
118  -9.36584944021441   0.6321944403064
119  -9.47739805109226  1.13574367776003
120  -9.33110957092142  1.62331855243537
121  -8.99146749580688  1.99020977677785
122  -8.12592320932193  2.23934457122577
123  -7.23619354112648   2.1191479909336
124  -6.37607831036038  1.87013572619758
125  -5.50875908673547  1.65173697898117
126  -4.62143393553838  1.54651772170367
127  -3.72860040182718  1.55137717549404
128  -2.83342556596051  1.56571330010556
129  -1.92711382168571  1.54714696143005
130  -1.00348941596016  1.49743512282265
131  -0.0620828139932484  2.10593821901317
132  0.828394007139673  2.13008252956296
133   1.71883355001488  2.15132527334808
134   2.60934760126622  2.16387675722825
135   3.49983999907794  2.15098202825996
136   4.39020281847916  2.13910730459773
137   5.27544842966768  2.22404458673637
138   6.14268566255704  2.42386461810942
139   7.00155220343864  2.66321307403469
140   7.88417477465758  2.79287067769702
141   8.76377620747428   2.6432742471061
142   9.32100875779762  2.26001060692041
143   9.66534089304094  1.67198964713667
144   9.74666692484903  0.98770168918988
145   9.74716211532081 0.294282450440237
146   10.1633569024703 -0.277920610590631
147   10.4952114452563 -0.862202177531282
148   10.4334869231634 -1.26124245591833
149   10.2380807237962 -1.58320029217989
150   9.96984521129245 -1.83256742220622
151   9.66995434364461 -2.01844429508462
152   9.35943987857998 -2.15425878406491
153   9.04782539931666 -2.25122976052726
154   8.73958128553042 -2.31759970396261
155   8.43698538803138 -2.35942366212089
156   8.14129840340652 -2.38130352083912
157   7.85325961706254 -2.38688183079595
158   7.57330262141362 -2.37915403759768
159   7.30165281790181  -2.3606629746746
160   7.03837639395765 -2.33361918275223
161   6.78341067773701 -2.29997480090119
162   6.53658783478592 -2.26146837951642
163   6.29765612956499 -2.21965148323378
164   6.06629977999334 -2.17590402297544
165    5.8421570392725 -2.13144284011977
166   5.62483539710131 -2.08732650346553
167   5.41392231752717 -2.04445824043879
168   5.20898967366665 -2.00358828545817
169   5.00959016336606 -1.96531666505244
170   4.81524489505669  -1.9300975295234
171   4.62542357654056 -1.89824645509521
172   4.43952246263099 -1.86995230085685
173   4.25684910807916 -1.84529458983535
174   4.07662432642284 -1.82426561796989
175   3.89800919168371 -1.80679418208062
176   3.72015994776772 -1.79276627742081
177   3.54230610460271 -1.78203813917715
178   3.36383318914396 -1.77443888192687
179    3.1843378948956 -1.76976422423592
180   3.00363014544886 -1.76776787630555
181   2.82168635507592 -1.76815851016867
182   2.63858226596567 -1.77060597891396
183   2.45443320202964 -1.77475478844183
184   2.26935490421736 -1.78024014759042
185   2.08344513464735 -1.78670254161379
186   1.89678015860671 -1.79379875969585
187   1.70941931495262 -1.80120908120975
188   1.52141240300333 -1.80864132251843
189   1.33280670420404 -1.81583274766044
190   1.14365221588408 -1.82255074189756
191  0.954004815741714 -1.82859289285686
192  0.763927648997981 -1.83378687025476
193  0.573491214032275 -1.83799030181588
194  0.382772597079536 -1.84109071793307
195  0.191854200912132 -1.84300556793663
196  0.000822198418598124 -1.84368227971969
197  -0.190235149399412 -1.84309832774864
198   -0.3812292322854 -1.84126128201779
199  -0.572072839440636 -1.83820882544363
200  -0.762681876763528 -1.83400874481334
201  -0.952976991661799 -1.82875891685326
202  -1.14288499741263 -1.82258732208985
203  -1.33233991173246 -1.81565211920862
204  -1.52128331912257 -1.80814179306797
205  -1.70966365233231 -1.80027533807881
206  -1.89743391615994 -1.79230233933115
207  -2.08454744871065 -1.78450265063739
208  -2.27095169092998 -1.77718513720337
209  -2.45658080451694 -1.77068468294857
210  -2.64134946932015 -1.76535646446584
211  -2.82515219823401 -1.76156657686288
212  -3.00787443932562 -1.75967875557004
213  -3.18942219438809 -1.76003839263192
214  -3.36977343431652 -1.76295708226359
215  -3.54904458412986 -1.76870243061069
216  -3.72755005516392 -1.77749684479777
217  -3.90582376673771 -1.78952437060492
218  -4.08458507020059 -1.80493901099478
219   -4.2646627249683  -1.8238665360968
220  -4.44690976745751 -1.84639578207652
221  -4.63213562683813 -1.87256061267282
222  -4.82106636449737 -1.90231680080159
223  -5.01433333161143 -1.93551890422788
224  -5.21248392440194 -1.97190113029991
225  -5.41600386758359 -2.01106382354111
226  -5.62534033220961 -2.05246496249726
227  -5.84091880749378 -2.09541497537959
228  -6.06315101850961 -2.13907317023804
229  -6.29243415668606 -2.18244443956174
230  -6.52914301942533 -2.22437511680364
231  -6.77361694381614 -2.26354671927527
232  -7.02614321675864 -2.29846575605403
233  -7.28693821360891 -2.32744677521941
234  -7.55612687673176 -2.34858424577124
235  -7.83372001060434 -2.35970637469472
236  -8.11958624558855 -2.35829981918916
237   -8.4134086196839  -2.3413872031266
238  -8.71459797419429 -2.30532770974362
239  -9.02209316448273 -2.24549342540853
240  -9.33388103114383 -2.15575233200562
241  -9.64582896816124 -2.02769116491611
242  -9.94881344170973  -1.8497450566268
243  -10.2221777003075  -1.6078242149358
244  -10.4248435971765  -1.2918128399889
245  -10.4961255685908 -0.895889739846726
246  -10.1787485351982 -0.304934356623463
247  -9.77879600554328 0.278462685290633
248   -9.8058559506389 0.971706005744381
249  -9.75234767118751  1.66012717166842
250   -9.4281113273793  2.26127248865096
251   -8.8812380779511  2.66437676587647
252  -8.00471905563506  2.83701554958228
253  -7.11968484701823  2.71938600926122
254  -6.26185736561574  2.47450588084617
255  -5.39826964582019  2.25760043871449
256  -4.51469225400599   2.1528788763409
257  -3.62354598309562  2.15282664968815
258    -2.732072068252  2.16604781170824
259  -1.84088754941519  2.14795453209277
260  -0.951009285240771  2.10715412449948
