// Id               X                Y
  1  -0.0741300722365658 0.145609990656676
  2  0.834094793427854 0.197120500545827
  3   1.72146266673275 0.381988400036041
  4   2.57160505557492 0.676264343843304
  5   3.38310410959417  1.04341996157474
  6   4.17046174158692  1.43701369929251
  7   4.95907890855991  1.80505452762395
  8   5.78079379644134  2.07988345352006
  9   6.64476238760118  2.10690793938264
 10   7.40550210929158  1.70319311052495
 11   7.75285797415392 0.916623606288289
 12   7.75384323169166 0.451748038081321
 13    7.6693438299101 -0.00946612694019961
 14   7.60052047320458 -0.460503298706453
 15   7.78286128368734 -1.07647997420297
 16   8.40724057507772 -0.433353557560082
 17    8.4022340756651 -0.166415690716945
 18   8.27649558303239 0.0457328423375292
 19   8.08611389367906 0.199514567364314
 20   7.86903423384042 0.306802270040496
 21   7.64342872765254 0.383196361006965
 22   7.41557668006426  0.43764504269223
 23   7.18782753340937  0.47408514071773
 24   6.96217831400519  0.49452139416088
 25   6.74075776198531 0.501101659783474
 26   6.52595994138396 0.496479997872541
 27   6.33064820113247 0.484389982886717
 28   6.14698719293071 0.467446705278587
 29   5.96870342089414 0.446982939050371
 30   5.79417133411569  0.42412853871147
 31   5.62246643426014 0.399752901408759
 32   5.45295098400683 0.374497376603039
 33   5.28516024123886 0.348821163338342
 34    5.1187500134034 0.323046371296669
 35   4.95346331966238 0.297396356771656
 36   4.78910642202866 0.272025844665318
 37   4.62553120803953 0.247043389387415
 38   4.46262237527234 0.222527461458728
 39   4.30028825998666 0.198537557246423
 40   4.13845436740978 0.175121585352601
 41   3.97705885596101 0.152320561457278
 42   3.81604940582207 0.130171420333455
 43   3.65538105189088 0.108708557801662
 44    3.4950146786256 0.0879645538602048
 45    3.3349159626429 0.0679703999118721
 46   3.17505461376474 0.0487554538298806
 47   3.01540381209022 0.0303472718635295
 48   2.85593977220604 0.0127714115502764
 49   2.69664138935069 -0.00394873922488384
 50   2.53748993882375 -0.0197920786938789
 51   2.37846881112437 -0.0347398425203422
 52   2.21956327267535 -0.0487755903028935
 53   2.06076024664955 -0.0618851339637213
 54   1.90204811119706 -0.0740564179406113
 55   1.74341651389542 -0.0852793622945077
 56   1.58485620195967 -0.0955456797929922
 57   1.42635886796959 -0.104848677263772
 58   1.26791701081354 -0.113183050379561
 59   1.10952381135109 -0.120544679757886
 60  0.951173022049201 -0.126930434972236
 61  0.792858869599075 -0.13233799185506
 62  0.634575969300774 -0.136765667372864
 63  0.476319249822298 -0.140212275390154
 64  0.318083886800561 -0.142677005817536
 65  0.159865243651288 -0.144159328953971
 66  0.00165881788700194 -0.14465892627009
 67  -0.156539808799122 -0.144175648418477
 68  -0.314735018446594 -0.142709500873673
 69  -0.472931204506072 -0.14026065727211
 70  -0.631132821042098 -0.13682950021162
 71  -0.789344435197361 -0.132416688952269
 72  -0.947570784618757 -0.127023253106558
 73  -1.10581684148959 -0.120650710990225
 74  -1.26408788473182 -0.113301210799931
 75  -1.42238958183073 -0.104977692168862
 76  -1.58072808158476 -0.0956840649071709
 77  -1.73911011889077 -0.0854254008472248
 78  -1.89754313243658 -0.0742081336760511
 79  -2.05603539589379 -0.0620402604512038
 80  -2.21459616290068 -0.0489315371789092
 81  -2.37323582583272 -0.0348936594295307
 82  -2.53196608814365 -0.019940417565337
 83  -2.69080015003518 -0.00408781492501884
 84   -2.8497529075586 0.0126458634671937
 85  -3.00884116624141 0.0302400439598732
 86  -3.16808387236942 0.0486719296185509
 87  -3.32750236870807 0.0679166439064734
 88  -3.48712068749448 0.0879474500923407
 89  -3.64696590301619 0.108736028894815
 90  -3.80706858039214 0.130252773145386
 91  -3.96746337811402  0.15246702240374
 92  -4.12818989195119 0.175347108557235
 93  -4.28929387031833 0.198860010862604
 94  -4.45082899067862  0.22297032031001
 95  -4.61285946879426 0.247638082513259
 96  -4.77546388396954  0.27281491883418
 97  -4.93874074804222 0.298437610687155
 98  -5.10281651934743 0.324418068883538
 99  -5.26785694074431 0.350628307246562
100  -5.43408270686382 0.376878738314073
101  -5.60179047063584 0.402887925722498
102  -5.77138017512642 0.428242145932726
103  -5.94339072634991 0.452344338665937
104  -6.11855391639617 0.474355362018813
105  -6.29792227048193 0.493137152900259
106  -6.48345074300093 0.507215306051774
107  -6.68602877742586  0.51474668229788
108  -6.90337634871778 0.511827030824049
109  -7.12706156866044 0.495036356280497
110  -7.35379421890641 0.462198517844529
111  -7.58148975861907 0.411333617820974
112   -7.8077098435442 0.338545406689095
113  -8.02620163281687 0.234880502242563
114  -8.21919836515562 0.0846520131552092
115   -8.3499120086667 -0.124535051637712
116  -8.36343395160652 -0.391526187551932
117  -7.78627812880921 -1.08618777714104
118  -7.72888583782497 -0.411747851826782
119   -7.8252206071107 0.0340785131470917
120  -7.91080200859657 0.493016713494589
121   -7.9017941847182 0.955620762691749
122  -7.52866376885595   1.7291798229432
123  -6.76089170678108  2.11919603244087
124  -5.89726259748929  2.09532332161785
125  -5.07308790179059  1.82753998891999
126  -4.28292532110273  1.46396383373301
127  -3.49705694572214   1.0717392433619
128  -2.69053616808709 0.702563361189623
129  -1.84823217786218  0.40268038741396
130  -0.970321548898191 0.209327454781925
131  -0.0550833344246371 0.757117614311064
132  0.822782782108963  0.81648350982958
133   1.68490426493648  1.00219126630533
134   2.52262567118441  1.29621096618951
135   3.34205010501356    1.664574836345
136   4.16998711972937  2.05903118496251
137   5.06245563598156   2.4123987636905
138   6.10239191700691  2.60118788094568
139   7.15031183223523  2.41608545136971
140   7.98717637362396  1.78392580966536
141   8.39406604793028 0.862905240015621
142    8.4076070940412 0.164297496095243
143   8.21515346607124 -0.522878764547235
144   7.82766260812468 -1.15677239205069
145   7.21246747447616 -1.68266327551955
146   6.44376245503681 -2.10050915499938
147   6.29096252486259 -2.16457122643829
148   6.24907665154449 -2.18112993852361
149   6.20688628574745 -2.19741056575495
150   6.15843923733968 -2.21565615870162
151   6.10049152110311 -2.23690031713341
152   6.03294531838979 -2.26093244548369
153   5.95576790013339 -2.28750084253474
154   5.86135598395456 -2.31880850775341
155   5.75086268001287 -2.35392243606292
156   5.63445703061891 -2.38930303992931
157   5.51316414606244  -2.4245807420033
158   5.38855434393309 -2.45931330950237
159   5.26137866391945 -2.49335687398996
160   5.13199289570698 -2.52669365514997
161   5.00072171251485 -2.55931306468755
162   4.86785392661108 -2.59120632140929
163   4.73363113585421 -2.62236588383105
164   4.59824725812827 -2.65278438739105
165   4.46185455256102 -2.68245355256571
166    4.3245717051903 -2.71136347983197
167   4.18649160118976 -2.73950238645013
168   4.04768785364321 -2.76685668036276
169    3.9082199164903   -2.793411240053
170   3.76813693074653 -2.81914979420474
171   3.62748054892719  -2.8440553298136
172   3.48628697892054 -2.86811048652981
173    3.3445884500576 -2.89129791516083
174   3.20241425978302 -2.91360059063501
175   3.05979151997676  -2.9350020766193
176   2.91674569033296 -2.95548674245975
177   2.77330096190113 -2.97503993467405
178   2.62948053569296 -2.99364810582862
179   2.48530682786725 -3.01129890383114
180   2.34080162332673 -3.02798122474856
181   2.19598619270051  -3.0436852323439
182   2.05088138293038 -3.05840234764939
183   1.90550768845613 -3.07212521205221
184   1.75988530785751  -3.0848476275398
185   1.61403418941375 -3.09656447790879
186   1.46797406813457 -3.10727163486288
187   1.32172449621865 -3.11696585299387
188   1.17530486848679 -3.12564465764566
189   1.02873444403892 -3.13330622959805
190   0.88203236515056 -3.13994929037404
191  0.735217674228054 -3.14557299177156
192  0.588309329470371 -3.15017681295407
193  0.441326219732244 -3.15376046810742
194  0.294287178948012 -3.15632382729124
195  0.147211000358514 -3.15786685268879
196  0.00011645068647859 -3.15838955199739
197  -0.14697771566892 -3.15789195021166
198  -0.294052742398739 -3.15637408054105
199  -0.441089857018598 -3.15383599468186
200  -0.588070256577451   -3.150277792139
201  -0.734975093322305 -3.14569966777404
202  -0.881785460249943 -3.14010197625107
203  -1.02848237640249 -3.13348531156937
204  -1.17504677166738  -3.1258505994196
205  -1.32145947072635 -3.11719919968577
206  -1.46770117566476 -3.10753301604682
207  -1.61375244660449 -3.09685460931552
208  -1.75959367956058  -3.0851673108961
209  -1.90520508054301 -3.07247533255091
210  -2.05056663471936  -3.0587838685457
211  -2.19565806920382  -3.0440991861965
212   -2.3404588077024 -3.02842870086884
213  -2.48494791475603 -3.01178103158126
214  -2.62910402657106 -2.99416603353214
215  -2.77290526424024 -2.97559480408988
216  -2.91632912328751 -2.95607965904353
217  -3.05935233056753    -2.93563407618
218  -3.20195065514893 -2.91427260351164
219  -3.34409865329352 -2.89201072971084
220  -3.48576931822133 -2.86886471453887
221  -3.62693359199654 -2.84485137738373
222  -3.76755967823107 -2.81998784270384
223  -3.90761206859319 -2.79429124274423
224  -4.04705016104588 -2.76777838134459
225  -4.18582630081626 -2.74046536968192
226  -4.32388301480929 -2.71236725800844
227  -4.46114913950983 -2.68349771048203
228  -4.59753447690975 -2.65386880713691
229  -4.73292259705878 -2.62349111028893
230  -4.86716154182928 -2.59237419679838
231  -5.00005267734995  -2.5605279048613
232  -5.13133914919099 -2.52796449414624
233   -5.2606977961291 -2.49470159522784
234   -5.3877419981858 -2.46076501303923
235  -5.51204319285221  -2.4261899831326
236  -5.63313286753493   -2.391031826586
237  -5.74941925038571 -2.35571836788189
238  -5.85880830365132 -2.32094982626996
239  -5.94987421320429 -2.29073760490748
240  -6.02629218472404 -2.26441609524014
241  -6.09328749148641 -2.24055395253046
242   -6.1508668794906 -2.21941044230169
243  -6.19921507593249 -2.20116319205046
244  -6.24162960471679 -2.18474964376008
245  -6.28376637257784 -2.16803356402355
246  -6.43725654895139 -2.10334671818442
247  -7.20654347958453 -1.68245084887293
248  -7.83497387293488 -1.16752906938649
249  -8.25844636661287 -0.556525175565936
250  -8.49228451558475 0.120897389733637
251  -8.51199042733775 0.826192251008278
252  -8.11296431920595  1.79364311729533
253  -7.26749038934437  2.43653467096903
254   -6.2127112665842  2.62210060917356
255  -5.17066304757176   2.4357351487179
256  -4.27635815568465   2.0855365598642
257  -3.44702210805918  1.69189694586385
258  -2.62772982695894  1.32107160347445
259  -1.79140402015548  1.02120304806055
260  -0.930746425184399 0.826734035757719
