// Id               X                Y
  1  -0.106074811212236  5.31701560895871
  2  0.971425005513197  5.30075773865187
  3    2.0439483529933  5.15369319983643
  4   3.07539280436854  4.87542112734098
  5   4.02260945242147  4.49444380874566
  6   4.89946895471421  3.97264491978973
  7   5.75847057040674  3.41145677787628
  8   6.62821073493696  2.99449828629053
  9    7.5526567666993  2.70508201182918
 10   8.50181546126411  2.43677272511592
 11   9.41498792574078  1.93058356743342
 12   9.69396428604839  1.46390495796025
 13   9.72280264759612 0.929051248117575
 14   9.45808412364111 0.466239303671051
 15   8.98237154687137 0.231158977400966
 16   8.25816696582747 0.354670202752322
 17   7.89925858473374 0.529412782621703
 18   7.82738846931339 0.574058988242324
 19   7.75723105514741 0.620965528398345
 20   7.68727359021737 0.671096558210106
 21   7.61558705151867 0.725869791903557
 22    7.5418088859434 0.785908398128715
 23   7.46593634632656 0.851462924530922
 24   7.38806321566305 0.922740696152334
 25   7.30825243962521 0.999889628585442
 26   7.22653574740652  1.08303765303175
 27   7.14288945284716  1.17228663763343
 28   7.05722612806128  1.26772016873492
 29   6.96938192935284  1.36940658018389
 30   6.87910507007945  1.47740371870102
 31    6.7860429436653  1.59176365411751
 32   6.68972770741851  1.71253771260696
 33   6.58955997249151  1.83978072387215
 34   6.48479304837745  1.97354962355499
 35   6.37452994032414  2.11387892612736
 36   6.25776863867534  2.26068926136625
 37   6.13354755172901  2.41357960186747
 38   6.00116321237148  2.57158044782396
 39   5.86027747484466  2.73313011309739
 40   5.71082239626575  2.89635047110549
 41   5.55285780855584  3.05935874501492
 42   5.38650611634595  3.22043521235519
 43    5.2119503232465  3.37807421289183
 44   5.02945020089726  3.53098699808818
 45   4.83935321277569  3.67809253527025
 46   4.64209448781733  3.81850737151045
 47   4.43818722897568  3.95153592350709
 48   4.22820667509126  4.07666018215793
 49   4.01277063058101   4.1935278250996
 50   3.79251901399242  4.30193825001155
 51   3.56809425520755  4.40182654395939
 52   3.34012378054484  4.49324577252073
 53    3.1092052935968  4.57634819094083
 54   2.87589511908274  4.65136605918673
 55    2.6406995559774  4.71859271196005
 56   2.40406899314149  4.77836443338877
 57   2.16639445937357  4.83104355421165
 58   1.92800627807957   4.8770030567798
 59   1.68917453924042  4.91661285668266
 60   1.45011115836499  4.95022783486086
 61   1.21097334315755  4.97817762010599
 62  0.971868322424833  5.00075806620186
 63  0.732859204894588  5.01822432825187
 64  0.493971830793533  5.03078541769578
 65  0.255202462712598  5.03860010483937
 66  0.0165261420497357   5.0417740414159
 67  -0.222094480647066   5.0403579932959
 68  -0.460700045440964  5.03434710331905
 69  -0.699325322890916  5.02368114319303
 70  -0.937990204507231  5.00824575699032
 71  -1.17669104972138  4.98787474172835
 72  -1.41539258586267  4.96235344769576
 73   -1.6540205432005  4.93142340835578
 74  -1.89245518901598  4.89478832398792
 75  -2.13052590665291  4.85212152331464
 76  -2.36800695356889  4.80307501279287
 77  -2.60461453324745  4.74729019390756
 78  -2.84000533433601  4.68441028412454
 79   -3.0737767270895  4.61409441568153
 80    -3.305468856175  4.53603330595827
 81  -3.53456891606334  4.44996629221693
 82  -3.76051791761039  4.35569940395931
 83   -3.9827202213106  4.25312401756189
 84  -4.20055599090959  4.14223552126284
 85  -4.41339648496345  4.02315134688658
 86  -4.62062174679474  3.89612773685149
 87   -4.8216397919472  3.76157474509198
 88  -5.01590585917784  3.62006923709326
 89  -5.20293972262431  3.47236605089266
 90  -5.38233852010807   3.3194079410541
 91  -5.55378225456953  3.16233516489617
 92  -5.71702984312074  3.00249456342624
 93  -5.87190745327246  2.84144281128912
 94  -6.01830193166062  2.68092327978785
 95  -6.15619139867697  2.52276823366312
 96  -6.28574682821293  2.36867251175729
 97  -6.40745840346068  2.21989745622595
 98  -6.52213400190413  2.07713778919534
 99    -6.630730254108  1.94065987475738
100  -6.73417201422562  1.81052277783085
101  -6.83326277550658  1.68671612691783
102  -6.92866504740164  1.56921297275329
103  -7.02090810392801  1.45798295357854
104  -7.11040193280421  1.35299247344197
105  -7.19745103986496  1.25420143114149
106  -7.28226710097415  1.16155914544891
107  -7.36498081355048  1.07500011543624
108  -7.44565348254743 0.994439818878929
109  -7.52428886572682 0.919770645226255
110  -7.60084650829646 0.850857394638568
111  -7.67526347167715 0.787527362581892
112  -7.74752805097206  0.72952388855906
113  -7.81804017492885 0.676268142737924
114  -7.88873984939717  0.62619013193839
115  -7.96125369354879 0.578278555474921
116  -8.31440159731039 0.391285745021377
117  -9.03225662761159 0.233803456579991
118  -9.52183812391759  0.43897274775464
119   -9.8166107958908  0.88231114522825
120  -9.82111219277498  1.41643918440181
121   -9.5664261343461  1.89485161921342
122  -8.66767732908698  2.42323866823563
123  -7.72845978565039  2.69191934793773
124  -6.80483588162363  2.96952776644182
125  -5.93246954490424  3.37039222527759
126  -5.08164759277206  3.91277732455246
127    -4.217418268026  4.44176125239532
128  -3.27763703213524  4.83473949868052
129  -2.28159096394291  5.11131131567918
130  -1.19546731673363  5.22334698775728
131  -0.074127014987986  5.90238002038704
132  0.998651155681383  5.88532135273884
133   2.06182263052853  5.73923232520352
134   3.10118130392654  5.46287113325582
135   4.10740269417556  5.07711230890347
136   5.04543451479247  4.54606876375817
137   5.95587174403217  3.97308793911242
138   6.92858310446018  3.51966493833113
139   7.94448314170337  3.17411275125172
140   8.96575798891993  2.83112140982382
141   9.85589025068545  2.22456841707595
142    10.221867352196  1.65494268542645
143   10.2868766504313 0.982619567511342
144   10.0447973096266 0.350790715488248
145   9.61228766256151 -0.167140547257029
146   10.1440101688424 -0.68749727688535
147    10.324019391076 -1.10492757431832
148   10.1120298851775 -1.35503996364686
149   9.85061607356301 -1.54754827235482
150    9.5634628906484 -1.69521994085868
151   9.26321969479687 -1.80617707693345
152   8.95612724310184  -1.8836595188498
153   8.64638951353757 -1.92941770657909
154   8.33747058259251 -1.94518907209791
155   8.03231374568826 -1.93296182034505
156   7.73337533981818  -1.8949443008229
157   7.44264447247016 -1.83348986625934
158   7.16167056033714  -1.7510262508315
159   6.89159831229954 -1.64999688479231
160    6.6332078358562 -1.53281416462559
161   6.38695820545963  -1.4018234451974
162    6.1530335604088 -1.25927645790119
163   5.93139076830735 -1.10731337400695
164   5.72180483343768 -0.947954550701724
165   5.52389679440551 -0.783107742748673
166   5.33710350243583 -0.614601081981876
167   5.16054123216531 -0.444235016577573
168   4.99282740164023 -0.273796637010809
169   4.83209435013248 -0.104984912374825
170   4.67627165926612  0.06069770387443
171   4.52339825043067 0.222000255395824
172    4.3717860370228 0.377916050673254
173     4.220055924483 0.527648577127934
174   4.06711749063312 0.670576989659742
175   3.91213405853893 0.806229661150157
176   3.75448771937502 0.934265103109686
177   3.59374735938873  1.05445749475916
178   3.42963962993513  1.16668460825205
179   3.26202243865142   1.2709168024407
180   3.09086072989954   1.3672063743644
181   2.91620450520699  1.45567691102549
182   2.73816915065187  1.53651248719706
183   2.55691820366336   1.6099466915116
184    2.3726487035591  1.67625157020094
185   2.18557921927766  1.73572666050659
186   1.99594054148706  1.78868833611152
187   1.80396889113878  1.83545969954077
188   1.60990136622035  1.87636123430545
189   1.41397325017599  1.91170238230948
190   1.21641675366441   1.9417741518143
191    1.0174607581761  1.96684279925755
192  0.817331169004534  1.98714457316259
193  0.616251554586435  2.00288146603235
194  0.414443835580493  2.01421789335049
195   0.21212887672383  2.02127820786103
196  0.00952691616976095  2.02414496039553
197  -0.193142167086664  2.02285783269091
198  -0.395658700812539  2.01741318953568
199  -0.597803109476761   2.0077642240444
200  -0.799355767880943  1.99382169817437
201  -1.00009675315038  1.97545530836616
202   -1.1998054622789  1.95249573102144
203  -1.39826011399065  1.92473742176053
204  -1.59523722255536  1.89194225303905
205   -1.7905112126193   1.8538440737276
206  -1.98385442970171  1.81015425924255
207  -2.17503787924703  1.76056829071498
208  -2.36383308489837   1.7047733575534
209  -2.55001548133574  1.64245692326696
210  -2.73336973898969  1.57331613606016
211  -2.91369735369737   1.4970679126884
212  -3.09082673006613  1.41345948751376
213  -3.26462586125926  1.32227920968889
214  -3.43501758888233  1.22336739745688
215  -3.60199734532234  1.11662712044242
216   -3.7656532569044  1.00203487343298
217  -3.92618852048065 0.879651226507455
218  -4.08394604858395 0.749631703909212
219  -4.23943550393917 0.612238411479472
220  -4.39336298344762 0.467853390894892
221  -4.54666349771188 0.316995393114075
222   -4.7005348517632 0.160342498443332
223  -4.85646516115788 -0.00123748322630893
224  -5.01622892321677 -0.16665178975209
225  -5.18179840257834 -0.334558511536959
226  -5.35511786234124 -0.503384578775272
227  -5.53780482997124 -0.671404849104801
228   -5.7309987596721 -0.836836343032919
229  -5.93544897997953 -0.99786786333473
230  -6.15166744541825 -1.15262438216211
231   -6.3800008286918 -1.29912516582685
232  -6.62062540996593 -1.43526467154681
233  -6.87350834832677 -1.55881270789956
234  -7.13835975181743 -1.66742665194588
235  -7.41458363949759 -1.75867326067508
236  -7.70123006632121 -1.83006047667808
237  -7.99694968358083 -1.87908058932876
238  -8.29995251876784 -1.90326612958348
239   -8.6079734226172 -1.90025850423865
240  -8.91824489746132 -1.86788178586005
241  -9.22745783478611 -1.80417338647142
242  -9.53155381847078   -1.707125350617
243  -9.82451085618233 -1.57319560861944
244  -10.0940872828621 -1.39366644727576
245  -10.3169985811038 -1.15439430284607
246  -10.1539534688395 -0.731555081163418
247  -9.64574904998217 -0.188931518455201
248  -10.1112088206789 0.300064593737182
249  -10.3841462311296 0.919267718794882
250  -10.3538363490507   1.5941543451197
251   -10.010931839064  2.17791063937381
252  -9.13842533663661  2.80936908595041
253  -8.12009577995652  3.16135077691895
254  -7.10117738406695  3.49757814054447
255  -6.12233130497126  3.93691451926459
256  -5.20444428221929  4.49821341403036
257  -4.26600252482458  5.03115371348172
258  -3.26052854519208  5.42516199978364
259  -2.21477389754998  5.69335324153841
260  -1.14586702427953  5.80987147040482
