// Id               X                Y
  1  -0.371650580573645  3.71142309158758
  2  0.696125420817847  3.69753668926764
  3   1.75644073142122  3.59685560567009
  4   2.79670047162362  3.40481100312674
  5   3.79515248265646  3.11725674808804
  6   4.76767820768376   2.7243333863467
  7   5.71768791168373  2.27922776653966
  8   6.64924139485228  1.81757650746165
  9    7.5069069537006  1.30300867594151
 10   8.23282158595076 0.597318710312837
 11   8.51258384063384 -0.441066032473954
 12   8.14387274599598 -0.976614000111116
 13   7.62028222800296 -1.12597623922354
 14   7.11826174782976 -0.942580651550677
 15   6.78828438518513 -0.530823859719007
 16    6.6463011639165 0.223781033342481
 17   6.50769998280572 0.778528882564883
 18   6.45471553982154 0.893960701742791
 19   6.40697835045444 0.983582639967701
 20    6.3581470610172  1.06546205076196
 21    6.3064408499222  1.14402588644577
 22   6.24966906868724  1.22296622585367
 23   6.18645664075657  1.30374003147782
 24   6.11621302420861   1.3865772833978
 25    6.0387586019542  1.47112331938288
 26   5.95420639404924  1.55682664612556
 27   5.86283472787443  1.64308024487594
 28   5.76502615934892  1.72930946181567
 29   5.66121076823548   1.8150051001854
 30   5.55182929363932  1.89973690726185
 31   5.43730858912153  1.98315145674981
 32   5.31804869840082  2.06496331887541
 33   5.19441778497805  2.14494366210363
 34   5.06675196972329  2.22290919572918
 35   4.93535771441314   2.2987127010348
 36   4.80051523615792   2.3722355146812
 37   4.66248207702338  2.44338183519583
 38   4.52149638860828   2.5120745349286
 39   4.37777974959942  2.57825212619594
 40   4.23153947457523  2.64186656763608
 41   4.08297044132062  2.70288165647012
 42   3.93225649353177  2.76127181213606
 43   3.77957148508145  2.81702110811285
 44    3.6250800315643  2.87012244982188
 45   3.46893803014828  2.92057682812741
 46   3.31129300251618   2.9683926018141
 47   3.15228430910502  3.01358478017185
 48   2.99204327643431  3.05617428988202
 49   2.83069327321982  3.09618721987793
 50   2.66834976522955  3.13365404458032
 51   2.50512037345668  3.16860883050691
 52   2.34110495516418  3.20108843419566
 53   2.17639572272165   3.2311317010314
 54   2.01107741093968  3.25877867521874
 55   1.84522749984905  3.28406983104662
 56   1.67891649660282  3.30704533494833
 57   1.51220827741734  3.32774434685448
 58   1.34516048821499  3.34620436811466
 59   1.17782500086865  3.36246064195456
 60   1.01024842063952  3.37654561113829
 61  0.842472639495388  3.38848843629826
 62  0.674535429433964  3.39831457733063
 63  0.506471069648225  3.40604543936506
 64  0.338311001289183  3.41169808411668
 65  0.170084503640557  3.41528500691239
 66  0.00181938566000526  3.41681397933631
 67  -0.166457312987118  3.41628795723382
 68  -0.334718617112553  3.41370505371465
 69  -0.502936912991912  3.40905857676406
 70  -0.671083252659008  3.40233713106397
 71  -0.839126670986309  3.39352478360031
 72  -1.00703352104245  3.38260129254682
 73  -1.17476683324539  3.36954239873106
 74  -1.34228570383703  3.35432017867284
 75  -1.50954471814687  3.33690345771356
 76   -1.6764934139335   3.3172582811136
 77  -1.84307578973525  3.29534844018106
 78  -2.00922986256113   3.2711360495231
 79  -2.17488727835041  3.24458217041196
 80  -2.33997297736667  3.21564747408143
 81  -2.50440491502308  3.18429293758817
 82  -2.66809383652611  3.15048056377862
 83  -2.83094310115555  3.11417411601283
 84  -2.99284854896721  3.07533985774958
 85  -3.15369839922288  3.03394728705669
 86  -3.31337316594238  2.98996985676771
 87  -3.47174557165973    2.943385672587
 88  -3.62868043576923  2.89417816422497
 89  -3.78403450876948  2.84233672896595
 90  -3.93765621823412  2.78785735337979
 91  -4.08938528641674  2.73074322777889
 92  -4.23905217299765  2.67100538030359
 93  -4.38647728964227   2.6086633742872
 94  -4.53146992603842  2.54374613525981
 95  -4.67382682074598  2.47629300442144
 96  -4.81333030655458  2.40635515569818
 97  -4.94974596351477  2.33399756530666
 98  -5.08281973227418  2.25930178601154
 99  -5.21227449259023  2.18236984778303
100  -5.33780622638953   2.1033296654679
101    -5.459080108545  2.02234234229701
102  -5.57572726583346  1.93961163573373
103  -5.68734357791185  1.85539546421689
104  -5.79349276666258  1.77001849471127
105   -5.8937169683388  1.68388338619393
106  -5.98755858509359  1.59747612511466
107  -6.07459695269683  1.51135816199122
108  -6.15450244849873  1.42613430000236
109  -6.22711165804523  1.34237719060801
110  -6.29253647737321  1.26046596894317
111  -6.35134438623429  1.18023618330742
112  -6.40485855071809  1.10024925277959
113   -6.4553489308182    1.016801285315
114  -6.50465412116542 0.925222091956039
115  -6.55900335907256 0.807556829296473
116  -6.69687680703745 0.252136351054141
117  -6.83362430405798 -0.503443472879219
118  -7.15459480767273 -0.92190012695392
119  -7.64943056293684  -1.1249096588693
120  -8.17919891894707 -1.00570408375975
121   -8.5809105989916 -0.501135597028698
122  -8.36942500291407 0.546452776574358
123  -7.71308200372608  1.24271432528168
124  -6.91091103067153   1.7417305092305
125  -6.07058314459451  2.15843784507672
126  -5.22410101741128  2.55674279507722
127  -4.36855395679891   2.9416144858272
128    -3.468869628977  3.24652560116593
129   -2.4765096693002  3.48299321423025
130  -1.42467532020328   3.6184008039096
131  -0.0858358196155187  4.23006407510728
132   1.01383558182147  4.20493619715983
133   2.10589041988571  4.07861321781318
134   3.18212429944883  3.85695042209231
135   4.22897873346535  3.52481528342008
136    5.2414886263214  3.10178400836618
137   6.22637543396302  2.61834070636936
138   7.19478293339953  2.09684019856124
139   8.09608520854351  1.45902709084208
140   8.81567004270268 0.620445739131722
141   8.88811683048764 -0.476306948070711
142   8.63614723625991 -1.14022142040338
143   8.01448811999188 -1.49648178722314
144   7.29506185507837 -1.50519537193465
145   6.61312940060956 -1.28737519803101
146   6.25356529834123 -1.97544696764936
147   6.15386177659285 -2.09458453870429
148   6.01360630294688 -2.04028826544426
149   5.87868696921966 -1.97222650295328
150   5.74895306190863 -1.89494651480216
151   5.62439759022326 -1.81010326178023
152   5.50428013338242 -1.72025014192626
153   5.38768214060008  -1.6274288315069
154   5.27370812275372 -1.53313317619125
155   5.16152585668701 -1.43849631320646
156   5.05038750753393 -1.34440576196671
157    4.9396503470648 -1.25155966604173
158   4.82879037326077 -1.16049775656206
159   4.71740387126072 -1.07162484874805
160   4.60519761119617 -0.985233329660434
161   4.49197184489981 -0.901525382878631
162   4.37760088016577 -0.820633683257533
163   4.26201478150437 -0.742639232103314
164   4.14518403432541 -0.66758567511361
165   4.02710764591204 -0.595490135898413
166   3.90780437481498 -0.526351031782809
167   3.78730647338337 -0.460153504894559
168   3.66565530203554 -0.39687308985196
169   3.54289827175722 -0.336478142771739
170   3.41908670063544 -0.278931437399375
171   3.29427428836896 -0.224191224743205
172   3.16851600591792 -0.172211964064671
173   3.04186726549171 -0.12294486627286
174    2.9143832834021 -0.0763383423449266
175   2.78611858015222 -0.0323384151085679
176   2.65712658297282 0.00911087118648513
177   2.52745930927866 0.0480670255384834
178   2.39716711766891 0.0845886622692636
179   2.26629851787008 0.118735030983965
180   2.13490003362065 0.150565529447728
181   2.00301611374954 0.180139206962882
182   1.87068908717081 0.207514266930941
183   1.73795915758267 0.232747577354165
184   1.60486443356749 0.255894197397133
185   1.47144098969253 0.277006927047579
186   1.33772295419418 0.296135885591762
187   1.20374261892853 0.313328123212204
188   1.06953056749322  0.32862726864547
189   0.93511581775638 0.342073214591107
190   0.80052597544073 0.353701841496709
191  0.665787395875305 0.363544779490191
192  0.530925351512347 0.371629207599732
193  0.395964203285146 0.377977688989995
194  0.260927574330067 0.382608040733511
195  0.125838524993819 0.385533236603897
196  -0.00928027161896141  0.38676134149322
197  -0.144406354042419 0.386295476286464
198   -0.2795172970947 0.384133812338024
199  -0.414590536978711  0.38026959505411
200  -0.549603197032091 0.374691196457065
201  -0.684531914389139 0.367382196959656
202  -0.819352667965218 0.358321496876564
203  -0.954040608394767 0.347483458415119
204  -1.08856989083889 0.334838078987195
205  -1.22291351191581  0.32035119664112
206  -1.35704315238224 0.303984728201508
207  -1.49092902758652 0.285696940307034
208  -1.62453974810266 0.265442752939618
209  -1.75784219331199 0.243174074242948
210   -1.8908014009985 0.218840164447462
211  -2.02338047623815 0.192388025585063
212  -2.15554052297049 0.163762812443949
213   -2.2872406016313 0.132908258962197
214  -2.41843771610592 0.0997671130978882
215  -2.54908683307135 0.0642815722874308
216   -2.6791409366094 0.0263937110953887
217  -2.80855112093366 -0.0139541072009861
218  -2.93726672440174 -0.0568188422695843
219   -3.0652355090241 -0.10225641640531
220  -3.19240389193767 -0.150321382807229
221  -3.31871723953559 -0.201066616310502
222  -3.44412024222416 -0.254543010248306
223  -3.56855739971341 -0.310799148062766
224  -3.69197366565206 -0.36988089633639
225  -3.81431532959393 -0.431830834219317
226  -3.93553125825773 -0.49668738892842
227  -4.05557468254256 -0.564483483373461
228  -4.17440580783732 -0.635244415363157
229  -4.29199564621306 -0.708984576290627
230  -4.40833161364333 -0.785702487084925
231  -4.52342557280892 -0.86537350510768
232  -4.63732505493067 -0.947939492902332
233  -4.75012821494064 -1.03329483104677
234  -4.86200245033249 -1.12126851139404
235  -4.97320536018462 -1.21160270230538
236  -5.08410492336919 -1.30392892767467
237  -5.19519413179279  -1.3977431687351
238  -5.30709524127793 -1.49237947458342
239  -5.42055175818813 -1.58697612086456
240  -5.53641195336641  -1.6804167676789
241  -5.65561020827556 -1.77121286650485
242       -5.779127868  -1.8573107614045
243  -5.90779068185472 -1.93610801618044
244  -6.04167291337545 -2.00587778729633
245  -6.18098394553524 -2.06217551013558
246  -6.28082631860893 -1.94313866529814
247  -6.64570900627088 -1.25753745729151
248  -7.31958060168777 -1.49626705153742
249  -8.03808495147696 -1.50850566228125
250  -8.67245637168435 -1.17564865741161
251  -8.96043769707943 -0.526654326501947
252  -8.95204352986706 0.571365461517894
253  -8.27415144597939  1.44138891953738
254  -7.39399053068591  2.10566183596234
255  -6.42739600898821  2.63351757127368
256  -5.43489178043648  3.10965114079754
257  -4.41710243429952  3.52996561080616
258  -3.35982628602303  3.83849508785163
259  -2.27871487787148  4.04907191279277
260  -1.18309691160817  4.16043684310678
