// Id               X                Y
  1  -0.0762022161743263 0.0306609414241257
  2   0.83386301614498 0.0486426699467587
  3   1.72771170901602 0.203008967043874
  4   2.58626380673277 0.472266461185722
  5     3.404064401537 0.826280523199664
  6   4.19064388121583  1.22497562277902
  7   4.97065849671322  1.61673402845011
  8   5.77640087737668  1.93708147838029
  9   6.62901952202317   2.0828635202571
 10   7.47561423761892   1.9153629639995
 11    8.1643266578731  1.37852849084262
 12   8.38874891354759 0.950277248799375
 13   8.46814169999955 0.444755970407392
 14   8.31957181868533 -0.138741244201903
 15   7.75232417804078 -0.586884851655767
 16   7.90445744950156 0.318031833492334
 17   7.81360268979343 0.572625133108198
 18    7.6364573879272 0.724064240873499
 19   7.41995890532222 0.802463882610413
 20   7.19684897913432 0.831669033685008
 21   6.98555666469524 0.832369157746471
 22   6.80033613777312 0.817547466530785
 23   6.62394832957383 0.792057626869543
 24   6.45313736437322  0.75770282493694
 25   6.28713860647586  0.71593086035504
 26     6.126228320252 0.668582315225126
 27   5.96848179049772  0.61713522932643
 28   5.81322682739037 0.563318358422813
 29   5.65983485426399 0.508587806164012
 30   5.50769849967194 0.454008478014646
 31   5.35630720907936 0.400300705686031
 32   5.20527636867089 0.347939225435489
 33   5.05433697519004 0.297250125687158
 34   4.90331017721715 0.248484041231363
 35   4.75208156349636 0.201858828948913
 36   4.60058083168883 0.157573454279476
 37   4.44876794374168 0.115801537790463
 38   4.29662505135654 0.0766767923150447
 39   4.14415236877226 0.040281459126867
 40   3.99136562062209 0.00664367333499379
 41   3.83829321562393 -0.0242562947575881
 42   3.68497257817159 -0.0524748635395951
 43   3.53144614219599 -0.0780938839640284
 44   3.37775780225576 -0.101212857928357
 45   3.22395029589395 -0.121945933446911
 46   3.07006353418968 -0.140422794352494
 47   2.91613362097225 -0.156791060443107
 48   2.76219225484661 -0.17121731661422
 49   2.60826630061036 -0.183884497061769
 50   2.45437745346219 -0.194984870811393
 51   2.30054204455376 -0.204709741750024
 52   2.14677110545437 -0.213238385500556
 53   1.99307078439771 -0.220729055100056
 54   1.83944309926832 -0.227314022325897
 55   1.68588689302048 -0.233099117016392
 56   1.53239880314046 -0.238166850245438
 57   1.37897408733738 -0.242581483137254
 58   1.22560722603952 -0.246394404730831
 59   1.07229229950359 -0.249648652905407
 60  0.919023185556398 -0.252382016800157
 61  0.765793640049492 -0.254628662172071
 62  0.612597316035582 -0.25641953182613
 63  0.459427761655613 -0.25778190397406
 64  0.306278419725557 -0.258738498206764
 65  0.153142638687414 -0.259306459891182
 66  1.36961798979838e-05 -0.259496471474967
 67  -0.153115167767701 -0.259312157116403
 68  -0.306250712530081 -0.258749874348894
 69  -0.45939965867824 -0.257798922749483
 70  -0.612568654778824 -0.256442139326579
 71  -0.765764253809232 -0.25465678651292
 72  -0.918992902171425 -0.252415565784893
 73  -1.07226094001199 -0.249687507692325
 74  -1.22557460310878 -0.246438406670939
 75  -1.37894000320994 -0.242630410301426
 76  -1.53236304666443 -0.238220380143094
 77  -1.68584923514997 -0.233156773294797
 78  -1.83940328630036 -0.227375106492829
 79  -1.99302852829431 -0.22079256971944
 80  -2.14672607100931 -0.213302961912982
 81  -2.30049383391836 -0.204773590642952
 82  -2.45432558940011 -0.195045774362893
 83  -2.60821021033508 -0.183939854260964
 84   -2.7621312560105 -0.171264239389115
 85  -2.91606691033729 -0.156826502123266
 86  -3.06999017799691 -0.14044368005155
 87  -3.22386921901112 -0.121949257789199
 88   -3.3776677706401 -0.101195717987452
 89  -3.53134573050649 -0.0780534206685369
 90   -3.6848601133963 -0.0524080918662071
 91  -3.83816669141107 -0.0241598160423748
 92  -3.99122258800541 0.00677405658125344
 93  -4.14398982546404 0.0404511594194467
 94  -4.29643936459625 0.0768927608114373
 95  -4.44855483620127 0.116072332106129
 96  -4.60033542881055 0.157908910107232
 97  -4.75179845977293 0.202269316061361
 98  -4.90298346089788 0.248979486191064
 99  -5.05396016702147 0.297839170014625
100  -5.20484225016273 0.348628933316498
101  -5.35580751411042 0.401097097206781
102  -5.50712345948819 0.454917935128065
103   -5.6591727041492 0.509619204161359
104  -5.81246363223541 0.564485603456198
105  -5.96760209205044 0.618459492993471
106  -6.12521608772177 0.670092301495036
107  -6.28596982822742  0.71765741430367
108  -6.45176377146311 0.759672401124986
109  -6.62236225306736 0.794300128068962
110  -6.79848666294304 0.820080936399124
111  -6.98325641495631 0.835211507982668
112  -7.19387665468354 0.834909712479938
113  -7.41677675447291 0.806140723601979
114  -7.63317294124859 0.728156742629305
115  -7.81032931555166 0.577129782221571
116  -7.90150072366849 0.322693497633419
117  -7.75194107093145 -0.582235511133117
118  -8.32787155037191 -0.144554022964494
119  -8.48423878122122 0.442447607051441
120  -8.41061745966635 0.948634290836302
121  -8.19256105726882  1.37940962608894
122  -7.51353876713387  1.92664310272185
123  -6.67151715043756  2.10523041774821
124  -5.82163099041146  1.96496711128799
125    -5.021326824727  1.64420009423524
126  -4.25047309631314  1.24920001136235
127  -3.47646119125136 0.845810347253438
128  -2.67405144352622 0.486602825584528
129  -1.83352612844301 0.212583411484461
130  -0.960945328818661 0.0548771964771117
131  -0.0257435169736152 0.612888671750482
132  0.845721025306783 0.664354112935146
133   1.70443586919534 0.824744426937768
134   2.54159956572176  1.09297948595448
135    3.3565359119174  1.44679100153187
136    4.1662007465785  1.84644926354919
137   5.00721693490523  2.23479894386033
138   5.94392628588274  2.52825065027949
139   7.00856026277438  2.56645462736843
140    8.0120158710829  2.15121228645883
141   8.63816018520696  1.25480138668662
142   8.70520855121409 0.510022710932608
143   8.47390427386918 -0.212334279918743
144   8.01801824359456 -0.836200129800138
145   7.43487361313586 -1.39844295280147
146   6.75455289968058 -1.99164078717552
147    6.6114581917621 -2.08794252631655
148   6.58869292157785 -2.10233573789245
149   6.56495608813453 -2.11709671417464
150   6.53375419652777 -2.13614154079538
151   6.49333503563477 -2.16025144079337
152   6.44428752315584 -2.18871530048259
153   6.38745812427464 -2.22068359388357
154   6.32226843938301 -2.25611016730284
155   6.24463409668228 -2.29669062620365
156   6.14160673013086 -2.34806637621727
157   6.02830803262587 -2.40162703319607
158    5.9082010294688 -2.45539623322569
159   5.78283276417586 -2.50854031466256
160   5.65324204412279 -2.56054902329164
161    5.5201742803954 -2.61107942481609
162   5.38416141030757 -2.65989427446155
163   5.24557807550065 -2.70682872414668
164   5.10468771947387 -2.75177020335842
165   4.96168061145223 -2.79464474548337
166   4.81670414196411  -2.8354064591504
167   4.66988462475296 -2.87402925117743
168   4.52134001068498 -2.91050106340355
169   4.37118470963874 -2.94482081062789
170   4.21952952939408 -2.97699758498837
171   4.06648002413428 -3.00705121512056
172   3.91213536439329 -3.03501318542322
173   3.75658832862417 -3.06092713374827
174   3.59992606935559 -3.08484848138948
175   3.44223106739278 -3.10684309611295
176   3.28358185370883 -3.12698519444602
177   3.12405333863101 -3.14535491433215
178   2.96371679350049 -3.16203608449381
179   2.80263965097371  -3.1771146380611
180   2.64088532548893 -3.19067786750084
181   2.47851320472148 -3.20281437943402
182   2.31557885098948 -3.21361433012791
183   2.15213434153086 -3.22316943935249
184   1.98822863204349 -3.23157242298457
185   1.82390786140775 -3.23891576078976
186   1.65921558352176 -3.24528997673793
187   1.49419296073715 -3.25078174621468
188   1.32887896108539 -3.25547213730587
189   1.16331058175563 -3.25943519174689
190   0.99752309783129  -3.2627369245749
191  0.831550322178227 -3.26543471983939
192  0.665424860894697 -3.26757704169216
193   0.49917835380711 -3.26920336167551
194  0.332841695922142 -3.27034421031184
195  0.166445240687144 -3.27102128039126
196  1.8988700643362e-05 -3.27124753101424
197  -0.166407233376179 -3.27102726046868
198  -0.332803598753524 -3.27035613097546
199  -0.499140106405566 -3.26922114006789
200  -0.665386402030681 -3.26760054391438
201  -0.831511589115441  -3.2654637496507
202  -0.997484025338437 -3.26277120879117
203  -1.16327110066408 -3.25947436286807
204  -1.32883899628048 -3.25551571415626
205  -1.49415242849972 -3.25082911362906
206  -1.65917438818475 -3.24534036547038
207  -1.82386589133486 -3.23896822870703
208  -1.98818575491837 -3.23162583807484
209  -2.15209039881222 -3.22322246407803
210  -2.31553365115215 -3.21366540537002
211   -2.4784665147168 -3.20286170524518
212  -2.64083685996734 -3.19071937781334
213  -2.80258905936074 -3.17714796790539
214  -2.96366364582351 -3.16205853095656
215  -3.12399711163749 -3.14536339545124
216  -3.28352191904842  -3.1269762122802
217  -3.44216668366439 -3.10681271073808
218  -3.59985637998871 -3.08479230195074
219  -3.75651236763201 -3.06084033182547
220  -3.91205207083265 -3.03489053528964
221  -4.06638826220186 -3.00688716441207
222  -4.21942810465088 -2.97678635640597
223  -4.37107236713536 -2.94455652906775
224  -4.52121540685487 -2.91017789301265
225   -4.6697462905467 -2.87364151571112
226  -4.81655049515935 -2.83494871326421
227  -4.96151010319532 -2.79411177378485
228  -5.10449917723635 -2.75115695357929
229  -5.24537123180637  -2.7061302201137
230  -5.38393754665284 -2.65910557331205
231   -5.5199369411581 -2.61019565033519
232  -5.65299787826468 -2.55956542281675
233  -5.78259264927458 -2.50745218085279
234  -5.90798171781561 -2.45419840673309
235  -6.02813516921988 -2.40031232464189
236  -6.14152519572347  -2.3466196800457
237  -6.24479309487012 -2.29504387219874
238  -6.32283708484693 -2.25418590448324
239  -6.38819835997364 -2.21861027631235
240  -6.44514880136309  -2.1865249708556
241  -6.49429146703213 -2.15796379895517
242  -6.53478248745061 -2.13377662530392
243  -6.56603702746049 -2.11467297054301
244  -6.58981975372988 -2.09986367868933
245  -6.61263540052821 -2.08541896109602
246  -6.75574221343864  -1.9889943779639
247  -7.43631539442952 -1.39575835905742
248  -8.02112291279084 -0.836704622817069
249  -8.48198909552054 -0.215646813697329
250  -8.72098482760484 0.504939422709474
251    -8.663678415809   1.2512457389177
252  -8.05085539939527  2.15791395858424
253  -7.05231512549083  2.58642644822654
254  -5.98655624716702  2.55576392224773
255    -5.048222928742  2.26209585190469
256  -4.20913736123888   1.8695200334442
257  -3.40281392412803  1.46367887216697
258  -2.59096809475924  1.10344547673476
259  -1.75541030160023 0.829924835685601
260  -0.896182675735636 0.666002537636038
