// Id               X                Y
  1  -0.0874047001822712  3.39206349093979
  2  0.990446282953713  3.38419695164148
  3   2.06674239665167   3.2944894378336
  4   3.12395169942925  3.12511732337802
  5   4.17144867672748  2.84484861821717
  6   5.12681695762315  2.46591023259726
  7   6.05848276424963  2.15659005751511
  8   7.01816112133429  1.93311969608832
  9   7.96414824749572   1.7371817485379
 10   8.85099856026028  1.42859388386737
 11   9.55752297200926 0.818327316185808
 12    9.6962373324605  0.32041779652979
 13   9.56092122288806 -0.181630423577088
 14   9.15588238198041 -0.515290381684031
 15   8.63524000499033 -0.55006749362177
 16   8.17691483106222 -0.32240404812501
 17   7.83645633934553 -0.0408087892693204
 18   7.77615015671427 0.0112878874903729
 19   7.72011419409206 0.0601979009285904
 20   7.66156358999207 0.111837505123698
 21   7.59661736160599 0.169639976353592
 22   7.52457614966842 0.234389053695839
 23   7.44552884206686 0.306069108595423
 24   7.35975086821223 0.384457477222523
 25   7.26752180942568  0.46922226383977
 26   7.16908225254086 0.559958338367506
 27   7.06461133950623 0.656194371362324
 28   6.95421950496711 0.757397884688154
 29   6.83794967185781  0.86297840467774
 30   6.71578568713876 0.972290434423484
 31   6.58766636666302  1.08463679317656
 32   6.45350372977504   1.1992729469592
 33   6.31320402409832  1.31541290680935
 34   6.16669014906864  1.43223723365593
 35   6.01392404168914  1.54890360210423
 36   5.85492749844663  1.66456022281571
 37   5.68979980408253  1.77836218444848
 38   5.51873048986379  1.88949043259786
 39   5.34200566330868  1.99717264844412
 40   5.16000677150381  2.10070475769132
 41   4.97320146477816   2.1994712984785
 42   4.78212734532636  2.29296259084895
 43   4.58737053369196  2.38078677633637
 44   4.38954176277139  2.46267541101945
 45   4.18925282257116  2.53848225928265
 46   3.98709563981851  2.60817593753256
 47   3.78362537449877  2.67182778877994
 48   3.57934801261446  2.72959668336034
 49   3.37471226783958  2.78171238011104
 50   3.17010523142515  2.82845879194467
 51   2.96585106973761  2.87015812881719
 52   2.76221207024422  2.90715653847094
 53   2.55939140570867  2.93981157610274
 54   2.35753707889731  2.96848161764766
 55    2.1567466052356  2.99351718017999
 56   1.95707208029125  3.01525401438341
 57   1.75852535987398  3.03400777573091
 58    1.5610831520191  3.05007005244543
 59   1.36469188184912   3.0637055210545
 60    1.1692722422925  3.07515000776024
 61  0.974723386222787  3.08460925076177
 62  0.780926749451195  3.09225818117983
 63  0.587749520133206  3.09824056549277
 64  0.395047789684612   3.1026688784404
 65   0.20266943444338  3.10562430096613
 66  0.0104567872027052  3.10715676231488
 67  -0.18175083562633  3.10728496870405
 68  -0.374114681293884  3.10599638318759
 69  -0.56679411024238  3.10324714281964
 70  -0.759944075053665  3.09896192050789
 71  -0.953712456923504  3.09303376060316
 72  -1.14823719056718  3.08532393984957
 73  -1.34364311362501  3.07566192926941
 74  -1.54003848496286  3.06384555813044
 75  -1.73751112877668  3.04964150828986
 76  -1.93612417932465  3.03278629544462
 77  -2.13591142574954  3.01298792207606
 78  -2.33687228914153  2.98992841334466
 79  -2.53896650592503  2.96326746912585
 80  -2.74210864377911   2.9326474789172
 81  -2.94616263924732  2.89770014628367
 82   -3.1509366202908  2.85805494900952
 83  -3.35617836241474  2.81334961135741
 84  -3.56157182349002  2.76324267450573
 85  -3.76673530858244  2.70742810638346
 86  -3.97122192605932  2.64565167716123
 87  -4.17452309209745  2.57772852893744
 88  -4.37607588045057  2.50356098955818
 89  -4.57527491995675  2.42315525837751
 90  -4.77148920498913  2.33663522360477
 91  -4.96408351213608  2.24425152043979
 92  -5.15244313378627  2.14638418859236
 93  -5.33599957986961  2.04353802344698
 94  -5.51425417764838  1.93633081014477
 95  -5.68679649556192  1.82547574530509
 96  -5.85331530373547  1.71176010890427
 97   -6.0136010554871  1.59602245286408
 98  -6.16754015597943  1.47913028916496
 99  -6.31510222124916  1.36195971272001
100  -6.45632202138654   1.2453778037877
101  -6.59127793734769  1.13022815059184
102  -6.72006869821728  1.01731945460546
103  -6.84279003621589  0.90741691967182
104  -6.95951277950925 0.801235958951468
105  -7.07026383267574 0.699437658206936
106  -7.17501147642104 0.602625387638487
107  -7.27365643944228 0.511341928372288
108   -7.3660302535794 0.426066407090093
109  -7.45190270816292 0.347209960681265
110  -7.53100220273739 0.275106958054438
111  -7.60306482604455 0.209987556550055
112  -7.66799208543834 0.151860360850783
113  -7.72649969460502 0.0999716872350227
114   -7.7824474944263 0.0508246789053602
115  -7.84265898472847 -0.0015028037767172
116  -8.18284378006398 -0.284734454228375
117  -8.64061903456422 -0.513652778994446
118  -9.16140054673716 -0.479824764354772
119  -9.56671104132719 -0.146429545500296
120  -9.70195473478017 0.355538510847695
121  -9.56312015676528 0.853112525944429
122  -8.85651097037037  1.46226778637697
123  -7.97401515199552  1.76954541323603
124   -7.0473163724927  1.96409573945914
125  -6.12721387474435  2.18170479927707
126  -5.23131144438048  2.47856211245307
127  -4.34396190836881  2.82529768602402
128  -3.31447752011913   3.1104372074496
129  -2.26863743700756  3.28206537600816
130  -1.17855845863812  3.33563940740382
131  0.0341198767742629  3.96634546757475
132   1.12304048045325   3.9547936446529
133   2.20636802990956     3.86338113363
134   3.27833267092579  3.68957599509949
135   4.32631238396281  3.40893320561628
136   5.33927200655569  3.01785735453922
137   6.37060157113071  2.67810179887758
138   7.42107769084258  2.39646000499673
139   8.47212908632599  2.08802592026009
140   9.45015401724613  1.56925372072636
141   10.0642665757606 0.639889374177104
142    10.060751911449 -0.0816920810450171
143   9.69284781248865 -0.699407587813841
144   9.07032467283349 -1.05050206097192
145   8.38613940090447 -1.23747654213865
146   7.96489065981708 -1.85306797429357
147   7.81429235128753 -1.96411240598021
148   7.60736822493403 -1.94590900012422
149   7.40670418647809 -1.89309348702224
150   7.21403967159158   -1.819099616635
151   7.02986946995093  -1.7309151039186
152   6.85385898650882 -1.63248574341832
153   6.68540193548912  -1.5264542939454
154   6.52375480147236 -1.41484681048054
155   6.36810814477503  -1.2992972091771
156   6.21763751571787 -1.18114692937142
157   6.07153551578103 -1.06151168919789
158   5.92902913936594 -0.94133412589657
159   5.78938796615897 -0.821425380503167
160   5.65192773132011 -0.702496568261789
161   5.51601212298374 -0.585181290072608
162   5.38105421527078 -0.470050581484354
163   5.24651794753798 -0.357621717666083
164   5.11191947616435 -0.248362211084499
165   4.97682797565558 -0.142690261670243
166   4.84086548206224 -0.0409728907059612
167    4.7037055912588 0.056477007681137
168   4.56507116717696 0.149403493380292
169   4.42473155865947 0.237609229962456
170   4.28250000901449 0.320955234838779
171   4.13823183087564 0.399358514715443
172   3.99182349350758 0.472787927194302
173   3.84321220386477 0.541259010466802
174   3.69237515751951 0.604828605387751
175    3.5393276237421 0.663589855920189
176   3.38411940465707 0.717667782806405
177   3.22682974552017 0.767215296105865
178   3.06756120580274 0.812409368659216
179   2.90643318707967 0.853447126616925
180   2.74357576668585 0.890541740315286
181   2.57912430325711 0.923918132403949
182   2.41321506316388 0.953808610941233
183   2.24598193056043 0.980448572152483
184    2.0775541339758  1.00407241193374
185   1.90805484876241  1.02490975494059
186   1.73760050523987  1.04318207097717
187   1.56630063251197  1.05909971085967
188   1.39425808517663  1.07285936336978
189   1.22156952532827   1.0846419130817
190   1.04832605940796  1.09461066532231
191  0.874613955131562  1.10290989787338
192  0.700515386208115  1.10966369752902
193  0.526109171243358  1.11497504168267
194  0.351471488136338   1.1189250894354
195  0.176676556767734  1.12157265232976
196  0.00179729130585958  1.12295382107545
197  -0.173094070526842  1.12308173115426
198  -0.347925350001073  1.12194645678056
199  -0.522623808500871  1.11951502928835
200  -0.697115513690373  1.11573158264066
201  -0.871324678642756  1.11051763546194
202  -1.04517296515317  1.10377252581726
203  -1.21857874790225  1.09537402187103
204  -1.39145634412281  1.08517913839948
205  -1.56371522445572  1.07302519556019
206  -1.73525923531416  1.05873116173378
207  -1.90598588180377  1.04209932570571
208  -2.07578574331431  1.02291734362266
209   -2.2445421209922  1.00096070132775
210  -2.41213104606891 0.975995620889307
211  -2.57842180737995 0.947782419525812
212  -2.74327817968427 0.916079298629732
213  -2.90656054237244 0.880646501119082
214  -3.06812905752467  0.84125073145261
215  -3.22784801041448  0.79766969437756
216  -3.38559128833761 0.749696592357058
217  -3.54124877874827 0.697144448578931
218   -3.6947332244999 0.639850209477159
219  -3.84598684601122 0.577678724027129
220  -3.99498693968396 0.510526851274169
221  -4.14174981381365 0.438328018687311
222  -4.28633287459184 0.361057434874444
223  -4.42883529586344 0.278737815731847
224  -4.56939819548237 0.191445029963651
225  -4.70820530259383 0.099312752922264
226  -4.84548467940494 0.00253525451556762
227  -4.98151140598276 -0.0986321354687612
228  -5.11661061038389 -0.203874720430853
229  -5.25116005729835 -0.312821543229689
230  -5.38559169336194 -0.425048776980787
231  -5.52039192845551 -0.540082106960516
232  -5.65610082278445 -0.657396790678555
233  -5.79331060802865 -0.776414109199891
234  -5.93266400962583 -0.896492919198136
235  -6.07485259463176 -1.01691495801627
236  -6.22061478055821 -1.13686248402828
237   -6.3707321314909 -1.25538685965371
238   -6.5260211122082 -1.37136691898354
239   -6.6873157852722 -1.48345615170038
240  -6.85543593437043 -1.59001553126555
241  -7.03113679824125 -1.68901286021487
242  -7.21503955180347 -1.77779628177411
243  -7.40749722469844 -1.85240855847747
244  -7.60803198638048 -1.90585983889302
245  -7.81493946303424 -1.92472964197579
246  -7.96593504141871 -1.81417798854554
247  -8.38986616749429 -1.20036478075087
248  -9.07469228886184 -1.01457480910591
249  -9.69784542317901 -0.663879215929629
250  -10.0658223024135 -0.0456670757023564
251  -10.0671429165531 0.676600705515304
252   -9.4538337325296  1.60749462432532
253  -8.47508524217364  2.12885252082189
254  -7.42317774202974  2.44791619478517
255  -6.36814103760029  2.73752327975761
256  -5.32732651803531   3.0732039911358
257  -4.28584106194353  3.41385865293534
258  -3.22644764035472  3.69182275293239
259  -2.14500121610355  3.85518916924328
260  -1.05572289825876  3.91262814322601
