// Id               X                Y
  1  -0.0641928095960519  6.87951172219451
  2   1.02794762444851  6.82630124445143
  3   2.09229296520022    6.646120663972
  4   3.11864719925294  6.30222501180902
  5   4.05109662655839  5.79527975296282
  6   4.79170995772205  5.21445618840611
  7    5.4679521810194   4.5669127800348
  8   6.15970971172094  3.94796764057869
  9   6.88315137892967  3.36689511022748
 10   7.59177030926411  2.76371546380077
 11    8.1576860206438  2.01739510022714
 12   8.27477823153992  1.50546479545607
 13   8.16322327714174  0.99007670216129
 14   7.79223992941274 0.616692657448895
 15   7.28076297887997 0.541837969450091
 16   6.83674808069587 0.760566772217537
 17   6.63053810855629 0.960119635112147
 18   6.49997178938618  1.13170256910003
 19    6.4095194459646  1.27648777974885
 20   6.34231168309732  1.40017287578564
 21   6.28918909937851   1.5087426414393
 22    6.2446292815775   1.6076189652204
 23   6.20520771299711  1.70134270620626
 24    6.1686363716213  1.79339692404675
 25   6.13358292479239  1.88639884294277
 26   6.09901095134921  1.98219657949736
 27   6.06432726812741  2.08222379380316
 28   6.02896447155517  2.18750137241825
 29   5.99251506380078  2.29878637082529
 30   5.95454043031918  2.41660387585705
 31   5.91458394285378  2.54133075339474
 32   5.87210568431591  2.67322942576222
 33   5.82646321512522   2.8124783816255
 34   5.77688432430198  2.95918759984482
 35   5.72244725603649  3.11340709088402
 36   5.66206150987738    3.275128440614
 37   5.59444877716327  3.44428192931473
 38   5.51812003785942  3.62073415305638
 39   5.43133828374149  3.80430130091023
 40   5.33202638672294  3.99483353216049
 41   5.21740148896547  4.19266163337084
 42   5.08489275412573  4.39681288005855
 43   4.93727834900527   4.5988278409526
 44   4.77592369790611  4.79469896712954
 45   4.60173124847596  4.98227503061507
 46   4.41595036804743  5.15985561686936
 47   4.22021737465172   5.3260945983344
 48   4.01650653557489  5.48000570851992
 49   3.80683475649713   5.6211070259526
 50   3.59281655853321  5.74953669679498
 51   3.37562182922016   5.8658423101862
 52   3.15612689830717  5.97074094776365
 53   2.93500678516763  6.06499896282919
 54   2.71278447336816  6.14937548107786
 55   2.48986286653816  6.22459368077174
 56   2.26654833207364  6.29132592580042
 57   2.04306905943592  6.35018653768491
 58   1.81958971828467  6.40172896073447
 59   1.59622330086243  6.44644545275778
 60    1.3730407753445  6.48476817254612
 61   1.15007903120387  6.51707096720574
 62  0.927347495831747  6.54367142627527
 63  0.704833723480885  6.56483293385045
 64   0.48250819652447  6.58076655276492
 65  0.260328532013502  6.59163263913414
 66  0.0382432513084568  6.59754212555975
 67  -0.183804754857309  6.59855743610115
 68  -0.405874950889555   6.5946930115948
 69  -0.628025966092891  6.58591543386594
 70  -0.850312390230488  6.57214314445284
 71  -1.07278145498136  6.55324575964048
 72  -1.29546949558906  6.52904299067783
 73  -1.51839807536796  6.49930318804538
 74  -1.74156963736531   6.4637415442267
 75   -1.9649625210547  6.42201801454505
 76  -2.18852514585405  6.37373505625407
 77  -2.41216911576383  6.31843535155962
 78  -2.63576093864865  6.25559978531841
 79  -2.85911197685575  6.18464611660801
 80  -3.08196614503495  6.10492905591749
 81  -3.30398471638762  6.01574291425532
 82   -3.5247272759873   5.9163288049376
 83  -3.74362692146853  5.80589006517047
 84  -3.95995433355196   5.6836240231843
 85  -4.17275012409425  5.54879431278263
 86  -4.38065486374901  5.40092523493099
 87  -4.58171924457519  5.24013982291573
 88  -4.77377816493952  5.06716448258348
 89  -4.95493838940042  4.88309856946754
 90  -5.12366284686621  4.68939554726184
 91  -5.27877913582845  4.48790520449248
 92  -5.41934361648481  4.28115654976717
 93  -5.54292926707717  4.07562047474838
 94  -5.64810512084918  3.87889567631882
 95  -5.73872103948005  3.68963241343947
 96  -5.81724570438136   3.5077776601096
 97  -5.88565016642753  3.33347926130718
 98  -5.94560805936631   3.1668565695124
 99  -5.99855880385741   3.0079565661312
100  -6.04573981134649  2.85674891706349
101  -6.08821047967407  2.71312675368094
102   -6.1268745601149  2.57690298757019
103  -6.16250363118982  2.44779790612541
104  -6.19576367789477  2.32541507888063
105  -6.22724709183501  2.20920213330983
106  -6.25751336229349  2.09839157610355
107  -6.28714342390088  1.99191502039605
108  -6.31681552044056  1.88828258938312
109   -6.3474155307485  1.78541930518261
110  -6.38020389118215  1.68045589990684
111   -6.4170793611484  1.56948939704259
112  -6.46102077310064  1.44736569086044
113   -6.5168951980061  1.30758502679474
114    -6.593151528261  1.14242720898934
115   -6.7060390796046 0.943353308982593
116   -6.8911110283891 0.704341733610407
117  -7.29711828285905 0.418165713709443
118  -7.81399959888002 0.403761464989475
119  -8.24271864265385 0.706387431385982
120   -8.4331433403303  1.19674715055432
121  -8.38413001406064  1.71985560281021
122  -7.88925775438617  2.52140701085962
123  -7.20127348064726  3.17972935389533
124  -6.46576886880661  3.80923186002332
125  -5.75734447029168  4.46842493413109
126  -5.05744178618327  5.16504369470998
127  -4.21355820299801  5.84600585477955
128  -3.25239677509156  6.35181648034106
129  -2.20593515945374  6.67322944923407
130  -1.13467678620951  6.80086626683959
131  -0.324860257093208  7.40281695126526
132  0.790165721629674   7.3641814720563
133   1.89577520386249  7.20112954908893
134   2.96804427703786  6.88159288786877
135    3.9786366893779  6.40167429223232
136   4.92163612546922  5.80521481408049
137   5.77210718129434  5.08708492041239
138   6.60628236947208  4.35322266079419
139   7.43953243728507  3.61860751011419
140    8.2026939133713  2.80807070670979
141   8.66465589521516  1.79104098778583
142   8.62494865580996  1.06846068578298
143   8.25412225917886 0.448111253039902
144   7.63109535994196 0.0865191928221524
145   6.93510816815297 -0.0824041642878884
146   6.38618925005853 -0.575314106555259
147   6.14798198584071 -0.621936382243612
148   5.90392019536201 -0.631557233439661
149   5.66165102206387 -0.608103243816494
150    5.4262910659577 -0.553740118622837
151   5.20153174706477 -0.470958338884371
152     4.990050018104 -0.363016239810111
153   4.79357902043121 -0.23371088148396
154   4.61295594297416 -0.0869908715295868
155   4.44823587242958 0.0733663506103063
156   4.29887911370581 0.243926814156596
157   4.16393253710926 0.421656733322911
158    4.0421575607972 0.603935512127803
159   3.93213211468735 0.788538182752085
160   3.83233962939313  0.97358878618717
161   3.74123927444298  1.15750049246516
162   3.65731788843357  1.33891504495388
163   3.57912950741329  1.51664633616064
164   3.50532834594729  1.68962945838005
165   3.43469967113265  1.85687572107374
166   3.36619199969538  2.01743359054532
167   3.29895361984274  2.17035428493724
168   3.23237724290464  2.31465730943884
169    3.1661619460561  2.44928002660902
170   3.10042760139156  2.57295136971329
171   3.03608322584427  2.68368056922533
172   2.97397077226092  2.78050568976716
173   2.91018345655233  2.87004022457095
174   2.84300822636158  2.95472567573019
175   2.77171108847173  3.03536142177076
176   2.69560810689349  3.11253503533567
177    2.6139463245135  3.18676396471606
178   2.52586814007069  3.25851857043947
179   2.43060999819735  3.32806523233185
180   2.32785116273078  3.39528831832115
181   2.21769047558473   3.4598344123727
182   2.10045977701389  3.52130493583398
183   1.97661281320569  3.57934128270573
184   1.84666651644592  3.63365297544975
185   1.71116558189447  3.68402255696729
186    1.5706595724558  3.73030025910669
187   1.42568811302271   3.7723942436011
188   1.27677179740788   3.8102593674973
189   1.12440723609406  3.84388605179012
190  0.969065089254382  3.87329007031899
191  0.811190209581908  3.89850362927306
192  0.651203236200261  3.91956784712147
193  0.489503155053334  3.93652660105581
194  0.326470479735515   3.9494216361776
195  0.162470814162223  3.95828880963396
196  -0.00214136084386755  3.96315534532313
197  -0.167018776708277  3.96403799392246
198  -0.331817401875834  3.96094202063641
199  -0.496192437642645  3.95386097502768
200  -0.659794309291165  3.94277723125089
201  -0.822264677759445  3.92766332161909
202  -0.983232510342213  3.90848412064851
203  -1.14231027566147  3.88519996911433
204  -1.29909037060307  3.85777085567438
205  -1.45314194824839  3.82616179273876
206  -1.60400839980659  3.79034952576748
207  -1.75120585408984  3.75033068860489
208  -1.89422319872465  3.70613144247236
209  -2.03252430154902  3.65781848343063
210  -2.16555332603643  3.60551102695179
211  -2.29274432073552  3.54939290109895
212  -2.41353673951399  3.48972303825541
213  -2.52739969434612  3.42684098628094
214   -2.6338715902931  3.36115980254857
215  -2.73263792500013  3.29312341473473
216  -2.82372266619091  3.22305081086893
217  -2.90772340718591  3.15085696660666
218  -2.98552290498345  3.07612903684047
219  -3.05790215599549  2.99840018282328
220  -3.12554486131126  2.91715640762188
221  -3.18911374930409  2.83175904053142
222  -3.24947680057685  2.74111870681201
223   -3.3096275119823    2.640447219524
224  -3.37244542661526  2.52410458455712
225  -3.43596361876095  2.39531325993526
226  -3.49966267029326  2.25568273725039
227   -3.5636278712355  2.10640753011888
228  -3.62834049075828   1.9485489045397
229  -3.69459291315444  1.78311878310167
230  -3.76343406199251   1.6111234987579
231  -3.83612575755853  1.43360276043687
232  -3.91410392461289  1.25167358109428
233  -3.99894085548474  1.06658172691334
234  -4.09230443844287 0.879760689691217
235  -4.19590932669882 0.692896678468284
236  -4.31145404066361 0.507996267924632
237  -4.44053739322161  0.32745020261999
238  -4.58454806631946 0.154081650759806
239  -4.74452373603573 -0.00884058341167242
240  -4.92098269884145 -0.157653362386207
241  -5.11374295026064 -0.288452113908825
242  -5.32175787236102 -0.397372421474141
243   -5.5429959525921 -0.480963947964504
244  -5.77431927640813 -0.536437509860872
245  -6.01108822152009 -0.561198549727802
246  -6.24640071366022 -0.550606664378786
247  -6.86172174400072 -0.146237698060781
248  -7.57448997751267 -0.0954639316892886
249   -8.2476102900769  0.15640046960592
250  -8.71264943323844 0.707378498049069
251   -8.8600721519757  1.41384335225278
252  -8.50293406869672  2.47004075351194
253  -7.79866951230022  3.32549382422321
254  -7.00648877515106  4.09083932443084
255  -6.21065966415825  4.85012906978857
256  -5.42411820429372  5.62029591690128
257   -4.5655112196166  6.30905198999935
258  -3.59096147072687  6.82539485426099
259   -2.5341965170828  7.15500951754109
260  -1.43337518034553  7.30928402996819
