// Id               X                Y
  1  -0.131061983472362  2.17898818613586
  2  0.929707869257556  2.15801459504184
  3   1.98423787517885  1.99048504394788
  4   3.03866716035906  1.88067319740748
  5   4.02789941669895  1.84703033343725
  6   4.97726126765798  1.84995297956623
  7   5.91418814332628   1.8638309598589
  8   6.84216187745245  1.85562461135705
  9   7.75615260990669  1.76455443581624
 10   8.62536875545056  1.50880919947231
 11   9.39155499499063  1.02550294107544
 12   9.69538535757519 0.622009819633027
 13   9.84638474711219 0.128187198665369
 14   9.75222677738824  -0.3890743072063
 15   9.39062126246794 -0.750972506895693
 16    8.7011472090672 -0.774234678915314
 17    8.0549500774076 -0.606137780585116
 18   7.96199469041409 -0.582055610694838
 19   7.88772695267894 -0.56283656341216
 20   7.82117260808247 -0.545602073134876
 21   7.75411997022984 -0.528185041354185
 22   7.68317222163706 -0.509638321651842
 23   7.60651085240338 -0.489378495491821
 24   7.52269375066107 -0.466850929212084
 25   7.43041772870782 -0.441436545832419
 26    7.3286629202747 -0.412458647613884
 27   7.21698953250557 -0.379253100025432
 28    7.0957468812714 -0.341268306579485
 29   6.96599118747324 -0.298145370869463
 30   6.82914736003357 -0.249747952165673
 31   6.68664391467255 -0.196148964416066
 32   6.53968721270763 -0.137594557868367
 33   6.38918315731181 -0.0744582352394761
 34   6.23574610424895 -0.00719285014687626
 35   6.07974487856279 0.0637120673338175
 36   5.92135974711483 0.137761937145064
 37   5.76063828285711 0.214475856542356
 38   5.59754422881821 0.293394180938233
 39    5.4319964798516 0.374078581299712
 40   5.26389733034912 0.456108346560481
 41   5.09315072212481 0.539075800910826
 42   4.91967233114302 0.622582489298908
 43   4.74339385085718 0.706236743894728
 44   4.56426378669373 0.789652585604284
 45   4.38224663590963 0.872449624683183
 46   4.19732171667003 0.954253584096879
 47   4.00948232545551  1.03469714903422
 48   3.81873545638589  1.11342095439984
 49   3.62510204067776  1.19007461315981
 50   3.42861753575499   1.2643177486361
 51   3.22933266574507  1.33582102634449
 52   3.02731414273576   1.4042671941613
 53   2.82264524678269  1.46935214153274
 54   2.61542619108594  1.53078598488694
 55   2.40577423698185  1.58829418083359
 56   2.19382354898693  1.64161866291349
 57   1.97972479480768  1.69051899235944
 58   1.76364450230243  1.73477350884203
 59   1.54576418814446  1.77418046361792
 60   1.32627927390394  1.80855911494736
 61   1.10539780598224   1.8377507641584
 62  0.883338997004677  1.86161971032553
 63  0.660331608049101  1.88005410217162
 64  0.436612193286318  1.89296666740562
 65  0.212423230950954  1.90029530215026
 66  -0.0119888332349699  1.90200350624091
 67  -0.236375602223068  1.89808065383096
 68  -0.460488774099794  1.88854209276248
 69  -0.684082188852485  1.87342907040565
 70  -0.906913845387412  1.85280848798995
 71  -1.12874785934349  1.82677248970338
 72  -1.34935633345332  1.79543789687562
 73  -1.56852111392811  1.75894550123301
 74  -1.78603540842651  1.71745923435504
 75  -2.00170524337914  1.67116523290838
 76  -2.21535074049949  1.62027082082497
 77  -2.42680719394416   1.5650034301906
 78   -2.6359259306539  1.50560948212184
 79  -2.84257493711634  1.44235324728626
 80  -3.04663923695266  1.37551570296357
 81   -3.2480210070162  1.30539339969087
 82  -3.44663942774356    1.232297345649
 83  -3.64243027968686  1.15655191117031
 84  -3.83534532569976  1.07849374946009
 85  -4.02535155851676 0.998470723776459
 86  -4.21243044324886 0.916840827987739
 87   -4.3965773323696 0.833971090508113
 88  -4.57780125426328  0.75023646734598
 89  -4.75612523921994 0.666018766726311
 90  -4.93158720257455 0.581705713574484
 91  -5.10424110922797 0.497690358559536
 92   -5.2741576790134 0.414371146197121
 93  -5.44142329921041  0.33215302768192
 94  -5.60613521477471 0.251449938731919
 95  -5.76839067271995  0.17268862930392
 96  -5.92826772881513 0.0963131206428707
 97  -6.08579603099182 0.022787986249148
 98  -6.24091707501707 -0.0474025540849054
 99  -6.39343506885634 -0.113763554986143
100  -6.54296162313387 -0.175809814097336
101  -6.68886059633489 -0.233099383899868
102  -6.83020579893998 -0.285277906698711
103  -6.96577845132437 -0.332127624095962
104  -7.09415416230599 -0.373612922496284
105   -7.2139353061761 -0.409913337882237
106  -7.32411187499776 -0.441429768910107
107  -7.42438117659526 -0.468745847146005
108  -7.51521060489322 -0.492540414863342
109  -7.59762205439502 -0.513494043991835
110  -7.67291158347301 -0.532209605922097
111  -7.74251667852472 -0.549248262994984
112  -7.80826066141702 -0.565142086664519
113   -7.8734740984833 -0.580802180518002
114   -7.9463286026031 -0.598177547197287
115  -8.03791921385357 -0.619918215135799
116  -8.68435645738951 -0.769634687542726
117  -9.37214383916556 -0.721772171590132
118  -9.71884435249424 -0.344302765870999
119  -9.78978960129068 0.178240166454043
120  -9.61703488230158  0.66569692690751
121  -9.29723596448682  1.05706024530994
122  -8.51583844793012  1.51544521844247
123  -7.64118820732141  1.75085072114213
124  -6.72754801183337  1.82703781250214
125  -5.80388705059551  1.82404831566387
126  -4.87736893266068  1.80250750633711
127  -3.95143939739826  1.79620816877195
128  -3.03259788746507  1.83612799742176
129  -2.12480535469527  1.94474586561829
130  -1.10309535864418  2.03557072286101
131  0.297150653131681  2.57265952802585
132   1.34301514138396  2.56428464183833
133   2.26324315041549  2.52802822790279
134   3.17780753410476  2.48725736368356
135   4.10252208183863  2.46586543511921
136   5.03764018204533  2.46965231514197
137   5.98682264926097  2.48100497607544
138   6.99938039162867  2.45632174652394
139   8.05046427273098  2.31247303010964
140    9.0663707414545  1.93741721586463
141   9.89629011701442   1.2341416123384
142   10.2209101221129 0.616076539409199
143    10.326413561934 -0.0696708721171811
144   10.2018098795952 -0.743133388199031
145    9.8769436769788 -1.34043756249912
146   9.37512786433778 -1.84040865331222
147   9.25460338097414 -1.92259909251503
148   9.04210586116435 -2.04272657248106
149     8.817963401356  -2.1407478698874
150   8.58554255814167 -2.21618831666892
151   8.34869849305779 -2.26930035999814
152   8.11046446710058 -2.30129642042066
153   7.87325833711373 -2.31393078814821
154   7.63903526054909 -2.30926979518821
155   7.40933293630226 -2.28954780440986
156    7.1852574247932 -2.25703773207926
157   6.96743949723507 -2.21391394926411
158     6.756017290536 -2.16212152155597
159   6.55070480647713 -2.10329202711734
160   6.35094283657173 -2.03873388286777
161   6.15606354681263 -1.96948276525711
162   5.96540782682423 -1.89637374767963
163   5.77838348683872 -1.82010618844521
164   5.59448182351746 -1.74129100258932
165   5.41327239672312 -1.66048083130913
166   5.23438891805018 -1.57818706087604
167   5.05751318868014 -1.49488791652363
168   4.88236057388466 -1.41103124226758
169   4.70866864158716 -1.32703476968397
170   4.53618950298709 -1.24328583556368
171    4.3646856776574 -1.16014169516648
172   4.19392883933361 -1.07793087462786
173   4.02370056467816 -0.996955495360566
174   3.85379419091989 -0.917494221740311
175   3.68401703501169 -0.839805408796813
176   3.51419245649049 -0.764130090528975
177   3.34416148068031 -0.690694575214807
178   3.17378388712256 -0.61971254117545
179   3.00293879039353 -0.551386622420689
180   2.83152480071781 -0.485909530711862
181   2.65945986667917 -0.423464784140294
182   2.48668089010622 -0.364227114903473
183   2.31314317983726 -0.308362620340575
184    2.1388197865519 -0.256028710118595
185   1.96370074097252 -0.207373892275474
186   1.78779220420864 -0.162537433492637
187   1.61111553149868 -0.121648924367573
188   1.43370624774925 -0.0848277775849898
189   1.25561293337149 -0.0521826852050832
190   1.07689602068851 -0.0238110597533234
191  0.897626503590206 0.000201517722308422
192  0.717884565608725 0.0197818213256469
193  0.537758133873575 0.0348694566120091
194  0.357341368375838 0.0454172728931771
195  0.176733097608575 0.0513916976807778
196  -0.00396478703993799  0.05277298236158
197  -0.184648964778939 0.0495553512832855
198  -0.365216332772904 0.0417470496547746
199  -0.545565653021719 0.0293702889379772
200  -0.725599184439758 0.0124610916899665
201  -0.905224286174497 -0.0089309588739318
202  -1.08435497890067 -0.0347430561521214
203  -1.26291345185243 -0.0648995826766483
204  -1.44083150470246 -0.0993125833513116
205  -1.61805191506632 -0.137882282134965
206   -1.7945297244158 -0.180497622360972
207  -1.97023343746666 -0.227036808739822
208   -2.1451461325647 -0.277367827176751
209  -2.31926648287195 -0.331348916958683
210  -2.49260968964109 -0.388828968282379
211  -2.66520832853086 -0.449647816094344
212  -2.83711310633813 -0.513636398093889
213  -3.00839351711246  -0.5806167395936
214  -3.17913837207462 -0.650401720059306
215   -3.3494561569181 -0.722794565739746
216  -3.51947514521652 -0.797588001621717
217  -3.68934317370082 -0.874562988957919
218   -3.8592269751133 -0.953486979768351
219  -4.02931098288537  -1.0341116484454
220  -4.19979558761826 -1.11617012354479
221  -4.37089495316508 -1.19937384482666
222  -4.54283469182995 -1.28340929971097
223  -4.71584993030517 -1.36793501339717
224  -4.89018451619487 -1.45257921408633
225  -5.06609224103267  -1.5369384924858
226  -5.24384091274175 -1.62057746137557
227  -5.42371985170078 -1.70302888455766
228  -5.60605090054451 -1.78379303398478
229  -5.79120230925255 -1.86233423679988
230   -5.9796037449837 -1.93807177238699
231  -6.17175876781383 -2.01036154541956
232  -6.36824760669449 -2.07846449278704
233  -6.56970718473457 -2.14149826629071
234  -6.77676897549283 -2.19837271565158
235  -6.98993887240255 -2.24772101254182
236  -7.20943336497317 -2.28785602366343
237  -7.43503277902431 -2.31678830054255
238  -7.66601624489993 -2.33231648391424
239  -7.90117866664803 -2.33216102503574
240  -8.13887147669052 -2.31410334655616
241  -8.37701560328707 -2.27611937354271
242  -8.61306755566216 -2.21652871933982
243  -8.84389296164465 -2.13422636300816
244  -9.06557380814016  -2.0291055643155
245   -9.2746815540388 -1.90180424546567
246  -9.39678536599771 -1.81215912089553
247   -9.8794665834111 -1.29279904235251
248  -10.1798221000161 -0.68211986104269
249  -10.2762054146752 -0.00342622422684102
250  -10.1426224465365 0.678092507350397
251  -9.79435562134592  1.28379730322418
252  -8.94110390632913  1.95968401956889
253  -7.91562301900562  2.30887499841177
254  -6.86043855026843  2.43351685989003
255  -5.82819263426261  2.44484372773718
256  -4.86428003548636  2.42516256771229
257  -3.90611708880785  2.41731075218229
258  -2.89872228975678  2.43959086946802
259  -1.84046646136835  2.48796650777888
260  -0.769449366895143  2.54017169487961
