// Id               X                Y
  1  -0.0842119890992106 0.425705127104823
  2  0.913320961522108 0.441763760456864
  3   1.92133794747437 0.489571453499796
  4   2.91520159346495  0.56189504210892
  5   3.85712265590911 0.602593196347557
  6    4.7830259155612 0.729554155610437
  7   5.66853524257801  1.03063258576903
  8   6.49483852738949  1.47281236006441
  9   7.30660284773807  1.92987230770686
 10   8.18270133116341  2.20526728687046
 11   9.07783339978306  2.01271601466349
 12   9.39739492148696  1.61885439056674
 13   9.46919228090224  1.11583181735949
 14   9.26799570800769 0.646570065116112
 15   8.87080395500708 0.330509591829328
 16   8.37978109926642 0.191071321512965
 17   8.11436198602926 0.159356287754975
 18   7.99025187612888 0.151246700584503
 19   7.96484431537907 0.150044049538975
 20   7.92369106252405 0.148420369466962
 21   7.83681563490724 0.146240112376413
 22   7.71495903620036 0.145778871609203
 23   7.57334789472736 0.148546916654141
 24   7.41951556781983 0.154913957748345
 25   7.25759587208394 0.164644274286467
 26    7.0899184387303  0.17721044216595
 27   6.91783760023739 0.191962097263811
 28   6.74219074211535 0.208211641061282
 29   6.56355178513593 0.225279218057771
 30   6.38236911761237 0.242519611231122
 31   6.19903829711686 0.259341158862135
 32   6.01393777521427 0.275220332848178
 33   5.82744342606276 0.289712782441987
 34   5.63993083460836 0.302460662730813
 35    5.4517706851523 0.313195945106652
 36   5.26332068329309 0.321739649176071
 37   5.07491636948036 0.327997289669474
 38   4.88686247510633 0.331951161163664
 39   4.69942591618992  0.33365031299036
 40   4.51283103979791 0.333199164956112
 41   4.32725732747557 0.330745684137956
 42   4.14283943454036 0.326469911437528
 43    3.9596692186117 0.320573434054144
 44   3.77779928691212 0.313270188048929
 45   3.59724755757491 0.304778777564932
 46   3.41800236373511 0.295316335765555
 47   3.24002770518498 0.285093836391374
 48   3.06326834717358 0.274312693256821
 49   2.88765456095974 0.263162450984087
 50   2.71310638396017  0.25181936410129
 51   2.53953734286824 0.240445673626718
 52   2.36685762984609 0.229189412294811
 53   2.19497675173667 0.218184595658287
 54   2.02380568862232 0.207551682488944
 55   1.85325860473537 0.197398211925168
 56    1.6832541551365 0.187819545595288
 57   1.51371642849661 0.178899660166895
 58   1.34457556181535  0.17071194956507
 59   1.17576805839745 0.163320006829115
 60   1.00723683675795 0.156778363696916
 61  0.838931035779856 0.151133171997799
 62  0.670805600532309 0.146422815258145
 63  0.502820673553034 0.142678441996222
 64  0.334940817840853 0.139924414367208
 65  0.167134099911069 0.138178667417492
 66  -0.000628936368956769 0.137452975454231
 67  -0.168376372236928 0.137753123098865
 68  -0.336136058153352 0.139078979575702
 69  -0.503936764013888 0.141424475739183
 70  -0.671809299874815 0.144777484279416
 71  -0.83978757253155 0.149119604462734
 72   -1.0079095450336 0.154425853666863
 73   -1.1762180685522 0.160664268892426
 74   -1.3447615586073 0.167795422453839
 75  -1.51359449011668 0.175771857311866
 76  -1.68277768763824 0.184537449209379
 77  -1.85237838814717 0.194026705177738
 78  -2.02247005341401 0.204164011419885
 79  -2.19313190734839 0.214862848428063
 80  -2.36444817056362 0.226024997883584
 81  -2.53650696018968 0.237539774868258
 82   -2.7093988182544 0.249283330649025
 83  -2.88321482787006  0.26111808618665
 84  -3.05804427465555  0.27289237482759
 85  -3.23397181359864  0.28444039432122
 86  -3.41107411184573 0.295582592761889
 87  -3.58941595910461 0.306126638783204
 88  -3.76904587288906 0.315869150496846
 89  -3.94999127835152 0.324598375680267
 90  -4.13225341256009  0.33209802097239
 91  -4.31580218785898 0.338152411877974
 92  -4.50057134047605 0.342553118801278
 93  -4.68645427487678 0.345107098649962
 94  -4.87330107178348 0.345646272118353
 95  -5.06091713448844 0.344038286254819
 96  -5.24906387982136 0.340198013557097
 97  -5.43746171680522 0.334099137899815
 98  -5.62579528605632 0.325785009810042
 99  -5.81372055409354 0.315377859448344
100  -6.00087286907553 0.303085470739081
101  -6.18687447025985 0.289204563141455
102  -6.37133912631529  0.27412038777594
103  -6.55387035403831 0.258302368039278
104  -6.73404760322457 0.242295881891216
105  -6.91139106816261 0.226710256967383
106  -7.08528900873226 0.212202261154164
107  -7.25485941879287 0.199451911223564
108  -7.41869709226502 0.189121719333675
109    -7.574421481126 0.181779537270246
110  -7.71787428889939 0.177748683772058
111  -7.84162949893502 0.176836345067734
112  -7.93132085401359 0.177907018498839
113  -7.97565230641104 0.179032871785012
114   -8.0040569999461 0.179972313092674
115  -8.13181563766066  0.18637199074018
116  -8.39831954145423 0.213032838002685
117  -8.89307198136516 0.338199615804421
118  -9.30300226992534 0.636442815706013
119  -9.52957357503637  1.09365804298565
120  -9.48821136297173  1.60005710053965
121  -9.19127602153286  2.01161300490744
122  -8.30511535337581  2.24051255497044
123  -7.42508334417982   1.9807173099679
124  -6.61384068134393  1.52474015063507
125  -5.79185347599599  1.07486405215863
126  -4.90969505111844 0.761786082412483
127  -3.98337553682569 0.622735074672742
128  -3.03267470594993 0.571817758466536
129   -2.0898777338686 0.496533889997845
130  -1.07000438329888 0.418425377519992
131  -0.0676800934828135  1.01958663247509
132  0.881359945549172   1.0441557706776
133   1.82920360762837  1.08524821994863
134   2.77702700233697  1.15300602291464
135   3.72934820590772  1.19838426989879
136   4.67239183539868  1.32969091513385
137   5.57875087872462  1.63651107417531
138   6.50061790597342  2.08916145078683
139   7.47558605582349  2.52431041851191
140   8.55072137426525   2.6942662034268
141   9.54017047543381  2.22877266633588
142   9.93263972008603   1.6440065423805
143   9.97477956837418 0.943429640256189
144   9.68803779341479 0.304115221712052
145    9.2647245028504 -0.250296462998942
146   9.40604972383406 -0.951851082714996
147    9.3098140341518 -1.18743291995396
148   9.10105736200556 -1.38323766036729
149   8.79654535089671 -1.56572656396012
150   8.47915307257028 -1.68092841321469
151   8.19360103197252 -1.73775267636388
152   7.94024552454216 -1.76216187100951
153   7.70725472084372 -1.76986268420087
154   7.48789290105162 -1.76796770620546
155   7.27819320562087 -1.76002446586745
156   7.07580977145233 -1.74807704810467
157   6.87929891451497 -1.73350525328008
158    6.6876957917509 -1.71735840194919
159   6.50028075591506 -1.70048691387898
160   6.31645768394276 -1.68359539427192
161    6.1356948351976 -1.66726642866741
162   5.95749917849028 -1.65197409187673
163    5.7814078998082  -1.6380941697567
164   5.60698820588591 -1.62591342524222
165   5.43384062131761 -1.61563850451516
166   5.26160317136856 -1.60740450895497
167   5.08995503103539 -1.60128314269978
168   4.91861890001186 -1.59729038834774
169   4.74736178923787 -1.59539373543705
170   4.57599419535143 -1.59551903326348
171   4.40436784037874 -1.59755704593525
172   4.23237228031946 -1.60136975994331
173   4.05993074499625  -1.6067964496139
174   3.88699557226215 -1.61365946121868
175    3.7135435567963  -1.6217696449887
176   3.53957146447483 -1.63093135149496
177   3.36509188451318 -1.64094691414391
178   3.19012951685124 -1.65162055815261
179   3.01471793056565 -1.66276170209451
180   2.83889678454667 -1.67418764525142
181   2.66270947441597 -1.68572565847925
182   2.48620115716462 -1.69721451586558
183   2.30941710348527 -1.70850551845095
184   2.13240133329494 -1.71946307006883
185   1.95519549903642 -1.72996486982739
186   1.77783799134168 -1.73990178694411
187   1.60036325072316 -1.74917748250148
188   1.42280127603545 -1.75770783997205
189   1.24517732499626 -1.76542026260732
190   1.06751180396544 -1.77225289136032
191  0.889820343633975 -1.77815379214287
192  0.712114054642526 -1.78308015604632
193  0.534399952938173 -1.78699755076562
194  0.356681539458859 -1.78987925592535
195  0.178959513120905 -1.79170570935996
196  0.00123259066672618 -1.79246408569004
197  -0.176501597741408 -1.79214802279369
198  -0.354245571767565 -1.79075750601941
199  -0.532001059509923 -1.78829891423688
200  -0.70976808820663 -1.78478522608115
201  -0.887544142245534  -1.7802363790162
202  -1.06532342054728 -1.77467976813259
203  -1.24309622093793 -1.76815086591294
204  -1.42084847377586 -1.76069393857245
205  -1.59856144135885 -1.75236282903902
206  -1.77621159408095 -1.74322177122066
207  -1.95377066952368 -1.73334619495717
208  -2.13120591721797 -1.72282347602028
209  -2.30848053020964 -1.71175358077224
210  -2.48555426520634 -1.70024955071332
211  -2.66238425622028 -1.68843776829947
212   -2.8389260322733 -1.67645794235246
213  -3.01513475758449 -1.66446274952688
214  -3.19096672196766 -1.65261706823993
215  -3.36638111857038 -1.64109674400876
216  -3.54134215353176 -1.63008683122156
217  -3.71582153480653 -1.61977926693082
218  -3.88980138187421 -1.61036994795336
219  -4.06327758071534  -1.6020552033369
220  -4.23626357626406 -1.59502767885911
221  -4.40879454619037 -1.58947167580732
222  -4.58093183689511 -1.58555800830706
223  -4.75276747062942 -1.58343845623763
224   -4.9244284618375 -1.58323988881341
225  -5.09608062558772 -1.58505811405789
226  -5.26793153852131 -1.58895147317929
227  -5.44023234105869 -1.59493415413734
228  -5.61327816564851 -1.60296915930335
229  -5.78740715681181  -1.6129608442074
230   -5.9629983398065   -1.624746958637
231  -6.14046904884527 -1.63809016048841
232  -6.32027336187366 -1.65266899109276
233  -6.50290425647009 -1.66806817410634
234  -6.68890447913063 -1.68376752959172
235  -6.87889524876361 -1.69912705984185
236  -7.07363923190779 -1.71336109553393
237  -7.27416656904513 -1.72548244394532
238  -7.48201188074065  -1.7341677047366
239  -7.69963533701054 -1.73742227941644
240  -7.93112038810743 -1.73175165184659
241  -8.18323344639068 -1.71016269286358
242   -8.4672513385897 -1.65748628122109
243  -8.78400063396511 -1.54821047938571
244  -9.08995526957339  -1.3727386419021
245  -9.30084673245029 -1.18346820345287
246  -9.40234696465285 -0.951764841629252
247  -9.27954850300416 -0.247139443300779
248  -9.72215107824882 0.292519831632586
249   -10.034292513915 0.919963816239888
250  -10.0223170632722  1.62135547814474
251   -9.6497854901352  2.21846725757375
252  -8.68023367154383  2.72272561446177
253  -7.60185526408003  2.57275832812061
254  -6.62405937331074  2.14117908420818
255  -5.70295727240089   1.6809446090879
256  -4.80047572443187  1.36199012843612
257  -3.85944421578513  1.21852169760617
258  -2.90881369538026  1.16692629557728
259  -1.95967723991113  1.08816538560977
260  -1.01411269049595  1.00967809013951
