// Id               X                Y
  1  0.0454208094587613  1.38830214338809
  2  0.991335746808351  1.36600874171691
  3   1.94641280661853  1.28605221039758
  4   2.89124251845478  1.25307754714513
  5   3.81644382158014  1.42840417181182
  6    4.6673969896147  1.83480907531264
  7   5.43740130679214  2.37306878993534
  8   6.22068200288921  2.87413259542206
  9   7.12204797442728  3.07741766146775
 10   7.91874534014423  2.62863292080096
 11    7.9476217172803  1.71843829697996
 12   7.63838502304577  1.30576952307471
 13   7.18960550981177  1.03389050763872
 14   6.66694825484236 0.886988752305071
 15   6.01327620524248 0.820471702635304
 16   5.36297668612559 0.799688796051174
 17   5.27893450763282 0.795063478294205
 18   5.18386938041736 0.789706082573451
 19    5.0854759778281 0.784354827996643
 20   4.98490165942503 0.779377196398188
 21   4.88267955404927 0.775066616388398
 22   4.77917658276359 0.771654980625025
 23   4.67466957877805  0.76931311100317
 24    4.5693727103594 0.768154933418204
 25   4.46345349117246 0.768244604175319
 26   4.35704368400597 0.769604761087243
 27   4.25024710609575 0.772224681655852
 28   4.14314539478208  0.77606768509402
 29   4.03580239024838 0.781077506867011
 30    3.9282675552339 0.787183595120413
 31   3.82057870282086 0.794305400780953
 32   3.71276420961242 0.802355784633443
 33   3.60484483321534 0.811243680757277
 34   3.49683521662328 0.820876150130311
 35   3.38874513939648 0.831159944015235
 36   3.28058056061718 0.842002678901188
 37    3.1723444886156 0.853313707201335
 38   3.06403770584282 0.865004751791382
 39   2.95565937193062 0.876990358701747
 40   2.84720752371978 0.889188210809141
 41   2.73867948832429 0.901519335990334
 42   2.63007222270581  0.91390823572346
 43   2.52138259069162  0.92628295426232
 44   2.41260758689646 0.938575103842739
 45   2.30374451570906 0.950719857753401
 46   2.19479113193239 0.962655920349298
 47   2.08574574869723 0.974325480922764
 48   1.97660731761886 0.985674156667342
 49   1.86737548528524 0.996650928720292
 50   1.75805062949713   1.0072080743055
 51    1.6486338783008  1.01730109724572
 52   1.53912711439489  1.02688865855609
 53   1.42953296706387  1.03593250841168
 54   1.31985479352555  1.04439742045528
 55   1.21009665133074  1.05225112916846
 56   1.10026326319601  1.05946427084954
 57  0.990359975462336  1.06601032860397
 58  0.880392711218661  1.07186558164903
 59  0.770367918978215  1.07700905915801
 60  0.660292517669714  1.08142249881092
 61   0.55017383860559  1.08509031017402
 62  0.440019564999756  1.08799954299696
 63  0.329837669531212  1.09013986048996
 64  0.219636350389394  1.09150351762244
 65  0.109423966188541  1.09208534446788
 66  -0.000791029899379495   1.0918827346053
 67  -0.111000156470119  1.09089563857598
 68  -0.221194970363602  1.08912656238292
 69  -0.331367132989485  1.08658057101121
 70  -0.441508476195218  1.08326529693786
 71  -0.551611067355431  1.07919095359093
 72  -0.66166727333667  1.07437035370817
 73  -0.77166982295656  1.06881893253585
 74  -0.881611867510532  1.06255477579658
 75  -0.991487038883113  1.05559865234163
 76  -1.10128950469391  1.04797405138574
 77  -1.21101401984669  1.03970722420011
 78   -1.3206559737552   1.0308272301096
 79  -1.43021143241613  1.02136598659931
 80  -1.53967717437309  1.01135832328149
 81   -1.6490507194627  1.00084203939993
 82  -1.75833034908006 0.989857964448852
 83  -1.86751511651927  0.97845002134505
 84  -1.97660484569304 0.966665291416946
 85  -2.08560011628648 0.954554080223887
 86   -2.1945022331526 0.942169982904481
 87  -2.30331317734567 0.929569947299435
 88  -2.41203553573854 0.916814332594417
 89  -2.52067240579752  0.90396696034515
 90  -2.62922727150075 0.891095154017621
 91  -2.73770384546325 0.878269761423604
 92  -2.84610587181946  0.86556515372923
 93  -2.95443688330621 0.853059190558211
 94  -3.06269990494365 0.840833141863994
 95  -3.17089709455193 0.828971545833163
 96  -3.27902931074603 0.817561992732197
 97   -3.3870955933648 0.806694788566057
 98  -3.49509254507648 0.796462503972036
 99  -3.60301358876894 0.786959289283548
100  -3.71084809275051 0.778280048361377
101  -3.81858031236475 0.770519119526178
102  -3.92618815806168 0.763768921084062
103  -4.03364167446633 0.758117428964101
104  -4.14090129356491 0.753646309077424
105  -4.24791559555185 0.750425935967262
106  -4.35461873822149 0.748513883007597
107  -4.46092701819724  0.74794444468718
108  -4.56673469282895 0.748731341721327
109  -4.67190842396545 0.750844161866957
110  -4.77627923613668 0.754227542846226
111  -4.87963309132873 0.758746919478827
112  -4.98169225157521 0.764254381800034
113  -5.08209337597289 0.770471811423109
114    -5.180301745526 0.777149127408862
115  -5.27517253759591  0.78383496236416
116  -5.35891357687897 0.789716773568301
117  -6.00133605557398  0.82211105294432
118  -6.65040178303834 0.901438536427028
119  -7.16788204678287  1.05807835956088
120  -7.61092678665061  1.33696165997742
121  -7.91458526783947   1.7523075011976
122   -7.8844764060657  2.66170502101886
123  -7.09417792577862  3.11859448018912
124   -6.1927301013655  2.92466766318346
125  -5.41055756947978  2.42698087429255
126  -4.64814455690823  1.88608966780201
127  -3.80964196252395  1.46783508204638
128  -2.89542294313092  1.26803997150758
129  -1.95687375304077   1.2660157281675
130  -0.960915556920305  1.30315802249877
131  0.0121785356228946  1.99179692740529
132   0.94992471833639  1.97304534246134
133   1.88335915326159  1.89159358187213
134   2.81843238915688  1.85861362018309
135   3.73658775942633  2.03481790163178
136    4.5843904075687  2.44439377508472
137   5.40394704715484  2.98884894237624
138   6.34867357023985  3.47485294096097
139   7.41515896848197  3.58807371700438
140   8.33286934555243  3.04299650930307
141   8.52855529874579  1.98889607160165
142   8.29674914777323  1.34063748696414
143    7.8309966664088 0.841329742181151
144   7.23729088353085 0.529893549550557
145   6.58434452145024 0.480352598148366
146   6.33340269871348 0.0316412172687788
147   5.96244844009462 0.00173751881854775
148   5.73027312049625 -0.0780454817228913
149   5.52611661561532 -0.138608685723986
150   5.33859759827156 -0.179923266106004
151     5.164644997649 -0.207565412446916
152      5.00183647534 -0.225888604787877
153   4.84802394054234 -0.237726415710078
154   4.70142457742969 -0.244871964864467
155   4.56062351020149 -0.248473250287965
156   4.42452226261057 -0.249286600618961
157   4.29227522212928 -0.24783058132854
158   4.16323181290776 -0.244478278031102
159   4.03688928934021 -0.239512558976248
160   3.91285605486409 -0.233159233082792
161   3.79082384490409 -0.225607001018073
162   3.67054689010165 -0.217019497187087
163   3.55182640360238 -0.207542586006483
164   3.43449906507902 -0.197308808661845
165   3.31842848008913 -0.186440120705458
166   3.20349884680515 -0.17504960771705
167   3.08961025956713 -0.163242593696029
168   2.97667522274583 -0.151117391502526
169   2.86461605944774 -0.138765844194805
170   2.75336298413463 -0.126273745759274
171   2.64285266459412 -0.113721192631566
172   2.53302714356613 -0.101182894811462
173     2.423833027095 -0.0887284625896416
174    2.3152208683691 -0.0764226770754547
175    2.2071446930852 -0.0643257479266604
176    2.0995616290733 -0.0524935595777827
177   1.99243161181906 -0.040977906141935
178   1.88571714354407 -0.0298267143918659
179   1.77938309091951 -0.0190842542102454
180   1.67339651062712 -0.00879133609240532
181   1.56772649388476 0.00101450467356922
182   1.46234402400513 0.0102988373336528
183   1.35722184310543 0.0190301784296214
184   1.25233432472818 0.0271798478016753
185   1.14765735012773 0.0347218375379915
186   1.04316818691971 0.0416326934601774
187   0.93884536907698 0.047891408675398
188   0.83466857753603 0.053479328707893
189  0.730618521045632 0.0583800677093727
190  0.626676817032104 0.0625794352542307
191  0.522825872327089 0.066065373254303
192  0.419048763719106 0.0688279025652658
193  0.315329118351316 0.0708590789007916
194  0.211650994006971 0.0721529577229834
195  0.107998759352552 0.0727055678350637
196  0.00435697422835486 0.072514893462368
197  -0.0992897299176909 0.0715808646700975
198  -0.202956769350749 0.0699053560303132
199  -0.306659727017417 0.0674921935152926
200  -0.410414471052282 0.0643471696590032
201  -0.514237272713202 0.0604780670926192
202  -0.618144923637719 0.0558946906231281
203  -0.722154852313846 0.0506089080851564
204  -0.826285239672236 0.0446347002542038
205  -0.930555133731893 0.0379882201643522
206  -1.03498456324545 0.0306878622231719
207  -1.13959465034108 0.0227543415568307
208  -1.24440772227158 0.0142107840506012
209  -1.34944742245322 0.00508282757439786
210  -1.45473882109975 -0.00460126511511826
211  -1.56030852611815 -0.0148104813261093
212  -1.66618479523581 -0.0255109207918897
213  -1.77239765058509 -0.0366656450546074
214    -1.878978997878 -0.0482345136129222
215  -1.98596275336386 -0.0601740066846755
216  -2.09338498239485 -0.072437034547328
217   -2.2012840553571 -0.0849727336692129
218  -2.30970082978184 -0.0977262500443056
219  -2.41867886943804 -0.110638510148854
220  -2.52826471511028 -0.12364598007167
221  -2.63850822924326 -0.136680413326267
222  -2.74946304291307 -0.149668586988835
223  -2.86118714215384 -0.162532024494578
224  -2.97374364722416 -0.175186701155787
225  -3.08720185603116 -0.187542723414232
226   -3.2016386442191 -0.199503964559848
227  -3.31714035061956 -0.21096762632483
228  -3.43380532166039 -0.221823672517599
229  -3.55174734383994 -0.231954042692261
230  -3.67110027629948 -0.241231492361158
231   -3.7920243048559 -0.24951780403992
232  -3.91471437969387 -0.256660946526226
233   -4.0394115905291 -0.262490484263602
234  -4.16641847829201 -0.266810084808685
235  -4.29611957362821 -0.26938521234923
236  -4.42900875994282 -0.269922834374462
237  -4.56572524672244 -0.26803783309036
238  -4.70709966439247 -0.263197256333897
239  -4.85421012512024 -0.254627561191727
240  -5.00844299141331 -0.241160528850262
241  -5.17154014599775 -0.220980479537733
242  -5.34559036658999 -0.191231866061278
243  -5.53293255269804 -0.147547191106022
244  -5.73654108195852 -0.0843552240736884
245  -5.96781445724975 -0.00166135391892611
246  -6.33885545482295 0.0322801474831861
247  -6.57457449288105 0.489586867472616
248  -7.22499400679165 0.551769486033853
249  -7.81172326328309 0.873792335210736
250   -8.2695503923669  1.37925602784464
251   -8.4977458642437  2.02822573783323
252  -8.29483910520866  3.08014453754987
253  -7.38244692808687  3.63200810625312
254  -6.31656115550708  3.52589023256587
255  -5.37142052987099  3.04219064286948
256  -4.55032704834642  2.49325811828301
257  -3.70722157775478  2.07088401941717
258  -2.79270805606705  1.86966700443153
259  -1.85518739117797  1.86483820961135
260  -0.918998915424855  1.90684142276868
