// Id               X                Y
  1  0.0920623038910941  3.32139984957746
  2   1.14086246923867  3.32292019774728
  3   2.10569791569944  3.30039168977775
  4   3.14458733750553  3.21990758688085
  5   4.18923436647351  2.99197590600155
  6    5.0880364705875  2.65704603045093
  7   5.99006478397583  2.36378961191954
  8   6.91606865432035  2.15427838363313
  9    7.8475269156828  1.97624154229652
 10   8.73624419913641  1.69247405596265
 11   9.45920382538854  1.11434225995623
 12   9.62826719242299 0.630871880539707
 13   9.54187098943426 0.125012201463804
 14   9.19163223706595 -0.253230378433473
 15    8.6933172938074 -0.376309041094487
 16   8.20715762673083 -0.246917287903128
 17   7.97766830360538 -0.124091861949854
 18   7.78082632976819 0.012056847831789
 19   7.62009831971171 0.142180555372954
 20   7.55178410984386 0.201901491150018
 21   7.49269509675096 0.255598344616326
 22   7.43421410932262 0.310418819876061
 23   7.37223638564585 0.370247342378434
 24   7.30372066210118 0.438178220046735
 25   7.22638074148067 0.516818398763017
 26    7.1385734722031 0.608080861746213
 27   7.03994525124129 0.712311067991599
 28   6.93282898918498 0.826497721034651
 29   6.81857071400213 0.948151933925017
 30   6.69728621869042  1.07574353617709
 31   6.56873597780696  1.20787197745407
 32   6.43255116779107  1.34310885629316
 33   6.28835084708993   1.4799623782075
 34   6.13582922134097  1.61688196054252
 35   5.97482516125575  1.75228660836766
 36   5.80537407134215  1.88461004237683
 37   5.62773941752254  2.01235651771203
 38    5.4424216620287  2.13416055014259
 39   5.25014438569745  2.24884325294823
 40   5.05182003043276  2.35545843055714
 41   4.84850014321183   2.4533231318063
 42   4.64131661763818  2.54202976326345
 43   4.43142089221774   2.6214395721988
 44   4.21992740402084  2.69165975733549
 45   4.00786610988968  2.75300821884752
 46   3.79614700187145    2.805970815061
 47    3.5855376702035  2.85115598309215
 48   3.37665339847988   2.8892509025706
 49   3.16995814817146  2.92098230864873
 50   2.96577410878399  2.94708385777453
 51   2.76429719173817  2.96827082340119
 52   2.56561585894299  2.98522198012612
 53   2.36973094848262  2.99856788726816
 54   2.17657463967888  3.00888441714473
 55   1.98602730758402  3.01669025879136
 56   1.79793163621578  3.02244720357036
 57    1.6121038743048  3.02656220851075
 58   1.42834245901068  3.02939046366883
 59   1.24643440070114  3.03123890861244
 60   1.06615986049633  3.03236982303217
 61  0.887295318248411  3.03300425079133
 62  0.709615665959977  3.03332511040687
 63  0.532895495841005   3.0334799070364
 64  0.356909794519875  3.03358300038406
 65  0.181434208644076  3.03371740664634
 66  0.00624501205999024  3.03393612591345
 67  -0.168881120335293  3.03426299299047
 68  -0.344167443498688  3.03469305195474
 69  -0.519837498362553  3.03519245473302
 70  -0.696115415825797  3.03569788294106
 71  -0.873226086772165  3.03611549137168
 72  -1.05139510473516  3.03631937207068
 73  -1.23084836843085  3.03614954139454
 74  -1.41181120291173  3.03540946081986
 75  -1.59450681914194  3.03386311845227
 76  -1.77915388127773  3.03123172631389
 77  -1.96596288953886   3.0271901344302
 78    -2.155131019797  3.02136313430349
 79  -2.34683500448795  3.01332193081671
 80  -2.54122162470854  3.00258121135093
 81  -2.73839545884661  2.98859743614046
 82   -2.9384037519073  2.97076920250045
 83  -3.14121866158828  2.94844076319198
 84  -3.34671767911601  2.92090994754029
 85   -3.5546636343329   2.8874417691863
 86  -3.76468626777097  2.84728883323732
 87  -3.97626779375635  2.79971922156053
 88  -4.18873512263062  2.74405181092774
 89  -4.40126139820698  2.67969797971871
 90  -4.61287915849423  2.60620745966615
 91  -4.82250664577963  2.52331484257215
 92  -5.02898750830152  2.43098219401611
 93  -5.23114238227957  2.32943265000322
 94   -5.4278288097341  2.21917006358613
 95  -5.61800398974051  2.10098090863948
 96  -5.80078343914967  1.97591671782656
 97  -5.97548819292117  1.84525805246286
 98  -6.14167396060256  1.71046385931391
 99  -6.29913760513617  1.57311244478289
100  -6.44789896854107  1.43484168685823
101  -6.58815864503443  1.29729636979897
102   -6.7202337388916  1.16209013759603
103  -6.84447232065455  1.03079010846004
104  -6.96113851287853 0.904939020248106
105  -7.07021591095508 0.786173383209565
106  -7.17071803134639 0.676875327901882
107   -7.2600801532693 0.580672025318676
108  -7.33836148295995  0.49777716573867
109  -7.40742287890017 0.426130530905443
110  -7.46955810998468 0.363138698520035
111  -7.52789264119744 0.305469691806505
112  -7.58731100984744 0.248368256771244
113  -7.65828172080524 0.182548827930466
114  -7.81927662347317 0.0436266124921166
115   -8.0138071605332 -0.101148703051404
116   -8.2406811262704 -0.233997353097153
117  -8.72074888054089 -0.384734781614914
118  -9.22453067880654 -0.287385901823597
119  -9.59469664527716 0.0707605917914606
120  -9.70801742371064  0.57073455278255
121  -9.56285329677408  1.06142687453785
122  -8.86346965880529  1.66763911104125
123   -7.9811363873128  1.97823454819826
124  -7.04012846039702  2.17795247074537
125  -6.08162831545676  2.40560862989221
126  -5.12352682546054   2.7156966430894
127  -4.15360390132093   3.0419877055247
128  -3.09731464464926  3.24521077059943
129  -2.05395311331799  3.31399620221695
130  -0.979979907625251  3.29744701298256
131  -0.105513000392878  3.87769290047783
132  0.972064620155454  3.88989860400301
133   2.05093589358775  3.88684091590291
134   3.12550391201375  3.80550727366445
135    4.1809297160559  3.57960312881111
136   5.20863872924765  3.24108399019571
137   6.23860088469303  2.91704430124068
138    7.2840377581422   2.6448120978151
139   8.33270680536872  2.35736310682998
140   9.32273301739666   1.8792466396629
141   9.99683621512392  1.00155149818317
142   10.0589894574139 0.289557160661357
143   9.77322550535438 -0.363516825438969
144   9.21229772982675 -0.798253424862336
145   8.56063133895216 -1.06725935030555
146    8.1760010050507 -1.68007575852863
147   7.91656770393096 -1.79478206867474
148   7.68468378163788   -1.855687649914
149   7.45705949493049  -1.8841299786089
150   7.15768121262551 -1.87871959745234
151   6.86800649554775 -1.82994941020572
152   6.59660277329122 -1.74634835826314
153   6.34723633561733 -1.63710918717961
154   6.12166617740578  -1.5112073945404
155   5.91999217597198 -1.37685999677536
156   5.74095165260138 -1.24102052985716
157   5.58163567608719 -1.10840006823099
158   5.43644556627819 -0.97970320863276
159   5.30135118506269 -0.855165917113535
160   5.17398043936301 -0.735427740944158
161   5.05257336045947 -0.621023468533352
162   4.93572195501396 -0.512332729995734
163   4.82225654490784 -0.409587930251262
164   4.71117670971398 -0.312889642229666
165   4.60160349165414 -0.222224571522367
166   4.49274479894612 -0.137486233420216
167   4.38387101731089 -0.0584983378716893
168   4.27429981892734 0.0149602033092807
169   4.16338964143103 0.0831307379961035
170   4.05054093189149 0.146253378187206
171   3.93520349501046 0.204550897996875
172   3.81688758491537 0.258219518250215
173   3.69517604971107 0.307426860482068
174   3.56973500023108 0.352316156131244
175   3.44032105912506 0.393014920674318
176     3.306784059445 0.429645903424501
177   3.16906488587583 0.462338191387021
178   3.02718883023768 0.491236753182513
179   2.88125530489941 0.516509288859426
180   2.73142503856475 0.538349856015515
181   2.57790600963618 0.556979272841787
182   2.42093937485935 0.572642701509514
183   2.26078651827796 0.585605069370342
184   2.09771807222814 0.596145089970273
185    1.9320053840367 0.604548618496148
186   1.76391450410659 0.611101952966134
187   1.59370244981331 0.616085521064544
188   1.42161531364349 0.619768218920447
189   1.24788773313779 0.622402523599567
190   1.07274328343041 0.624220398094743
191  0.896395440819323 0.625429944283121
192  0.719048861068412 0.626212726949874
193  0.540900799939382 0.626721680818862
194  0.362142569596438  0.62707951459705
195  0.182960973488074  0.62737753571722
196  0.0035396969125901  0.62767483316536
197  -0.175939346184485 0.627997771388551
198  -0.355294694980827 0.628339764658566
199  -0.534344029127233 0.628661317888083
200  -0.712902836723899 0.628890336575691
201  -0.890783041581223 0.628922725253993
202  -1.06779157814897 0.628623310471005
203  -1.24372891964699 0.627827140690598
204  -1.41838759158746 0.626341230878638
205  -1.59155074183789 0.623946832556123
206  -1.76299089278919 0.620402318226026
207  -1.93246907338623 0.615446768124189
208  -2.09973461743554 0.608804330799024
209  -2.26452600970237 0.600189388330445
210  -2.42657323814423 0.589312482141735
211  -2.58560212808195 0.575886838998971
212  -2.74134104537009  0.55963518066232
213  -2.89353013384308 0.540296322293261
214  -3.04193291734175 0.517630899280543
215  -3.18634971728321 0.491425455640122
216  -3.32663199808587 0.461494124132187
217  -3.46269651281034 0.427677261871549
218  -3.59453799615144 0.389836693919382
219  -3.72223914056331 0.347847663382835
220  -3.84597671350658 0.301588167620874
221  -3.96602298146188 0.250927012166379
222  -4.08274215389233 0.195712515386234
223  -4.19658234924832 0.135764173994782
224  -4.30806451717834 0.0708695685213151
225  -4.41777062539501 0.00078823123970712
226  -4.52633398994485 -0.0747368524274011
227  -4.63443470672574 -0.155960764621457
228  -4.74280271023428 -0.243113085330964
229  -4.85223025041128 -0.336371860484991
230    -4.963594955197 -0.435837726550068
231  -5.07789468678368 -0.541510057993181
232  -5.19629681305477 -0.653265852629468
233  -5.32020872482819 -0.770841424631679
234  -5.45138877515103 -0.893820102368654
235  -5.59217044285127 -1.02165791680749
236  -5.74629295649027 -1.15406499878271
237  -5.91977478517019 -1.29095052311516
238  -6.11612505983618 -1.42809417530301
239   -6.3366628256528  -1.5584278802404
240  -6.58161762396784 -1.67370906894635
241  -6.84939474040598   -1.764784799824
242  -7.13558861806421 -1.82219403550524
243  -7.42979944110374  -1.8375822859462
244  -7.65355893343036 -1.81815197525864
245  -7.88489429506305  -1.7672983825293
246  -8.14619347480718 -1.66480049718654
247  -8.55705790563104 -1.06929011178387
248  -9.22091909945286 -0.833007037217965
249  -9.80315168203922 -0.42803368677528
250  -10.1219459965446  0.20898689021967
251  -10.0958494465614 0.922610052839484
252  -9.45866681940728  1.82648408218727
253   -8.4857786100781  2.33448962240448
254  -7.44687139067426  2.63847325731897
255  -6.41238438651636  2.91586011547357
256  -5.39507922871794  3.24035204550735
257  -4.38222262364914  3.58173197884548
258  -3.33060575093484   3.7842268484817
259  -2.25854393067895  3.86622059257385
260   -1.1818474273095  3.85548564570993
