// Id               X                Y
  1  -0.0636498611698242 0.333444569664867
  2  0.920705080732315 0.327978556931402
  3   1.88124792959305 0.435238042370185
  4   2.81762882467837 0.623345847998812
  5   3.73032735042945 0.861268263243008
  6    4.6273159655898   1.1155633986521
  7   5.52391916634189  1.31762661117283
  8   6.42737789472186  1.36647964913942
  9   7.28725064499918  1.13442979526473
 10   7.93763435730295 0.542070941241938
 11   8.15890099829237 -0.311574893579221
 12   8.04033866578635 -0.780408194271766
 13    7.7531891297688 -1.18710201076909
 14   7.32183181134788 -1.45099119430164
 15   6.82488481727521 -1.49917312501831
 16   6.41359144164078 -1.34739845383698
 17   6.21060579749558  -1.2437643181614
 18   6.03114812925576 -1.14650613650524
 19   5.86622830046048 -1.05896231196843
 20   5.71119358524826 -0.981675268932838
 21   5.56327061621757 -0.913917098009675
 22   5.42067570915272 -0.854501012486351
 23   5.28223033779977 -0.802168781353778
 24   5.14715096994436 -0.755745057036632
 25   5.01490678658026 -0.714184129281537
 26   4.88511666672452 -0.676576089275644
 27     4.757478739427 -0.642140904308117
 28   4.63172792258059 -0.610219587333761
 29   4.50761482077199 -0.580264360551514
 30    4.3848985455813 -0.551828006079434
 31   4.26334704271859 -0.524552656787413
 32   4.14274040902152 -0.498158508601489
 33   4.02287455076333 -0.472432948490945
 34   3.90356393793053 -0.447220450036146
 35   3.78464308531808  -0.4224134141986
 36   3.66596685066615 -0.397943997457708
 37     3.547409827091 -0.37377689009577
 38   3.42886514047183 -0.349902973602608
 39   3.31024292220941 -0.326333780072551
 40    3.1914686612889 -0.303096682881131
 41   3.07248157202051 -0.280230757189508
 42   2.95323305673363 -0.257783256237306
 43   2.83368529990649 -0.235806653612138
 44   2.71381000152758 -0.214356203178741
 45   2.59358724076731 -0.193487968216502
 46   2.47300445345177 -0.173257270654793
 47   2.35205550551009 -0.153717510921838
 48    2.2307398469765 -0.134919309294482
 49   2.10906173524995 -0.116909920924736
 50   1.98702952069792 -0.0997328789052008
 51   1.86465499141258 -0.0834278226942022
 52   1.74195277652741 -0.0680304727870585
 53   1.61893980887333 -0.0535727165178193
 54   1.49563484801936 -0.0400827741368252
 55   1.37205806417358 -0.0275854186764297
 56   1.24823068232709 -0.0161022274440224
 57   1.12417468470583 -0.00565184713578374
 58  0.999912568297661 0.00374974156851357
 59  0.875467153118106 0.0120889705836358
 60   0.75086143606414 0.0193544497881983
 61  0.626118484714289 0.0255367562590028
 62  0.501261365246739 0.0306282504055797
 63  0.376313098712029 0.0346229204962979
 64  0.251296640142114 0.0375162559860418
 65  0.126234875325349 0.0393051493869061
 66  0.00115063045486129 0.0399878261051904
 67  -0.123933309799898 0.0395638016291459
 68  -0.248994179991546 0.0380338656157492
 69  -0.374009211414987 0.0354000927115996
 70  -0.498955613500812 0.0316658802716917
 71  -0.62381056326729 0.0268360134286133
 72  -0.748551207265766 0.020916758132901
 73  -0.87315468080071 0.013915982752834
 74  -0.997598149580175 0.00584330851292246
 75  -1.12185887929738 -0.00328971160575111
 76  -1.24591433891146 -0.0134693869474951
 77  -1.36974234346299 -0.024679659216103
 78  -1.49332124208529 -0.0369018534485908
 79  -1.61663015643569 -0.0501144174411252
 80  -1.73964927395993 -0.0642926601508925
 81  -1.86236019933578 -0.0794085030609568
 82  -1.98474636622954 -0.0954302623486456
 83   -2.1067935101583 -0.112322483830972
 84  -2.22849020221438 -0.130045856981407
 85  -2.34982844292526 -0.148557238689458
 86  -2.47080431568379 -0.167809821693048
 87   -2.5914187006257 -0.187753486648186
 88  -2.71167805247039 -0.208335380425572
 89  -2.83159524934831 -0.229500766224539
 90  -2.95119052415287 -0.251194193414272
 91  -3.07049249408124 -0.273361036454674
 92  -3.18953930617293 -0.295949452777361
 93  -3.30837991570111 -0.318912809448997
 94  -3.42707550667375 -0.342212628108069
 95    -3.545701046837 -0.365822097877535
 96  -3.66434694145341 -0.389730208050071
 97  -3.78312070714845 -0.413946557092506
 98  -3.90214852937474 -0.43850690257553
 99  -4.02157649946161 -0.463479526803137
100  -4.14157125806215 -0.488972500153487
101  -4.26231972819185 -0.515141918859919
102  -4.38402764884166 -0.542201160993477
103  -4.50691679810431 -0.570431124346957
104    -4.631221241966 -0.600191271922207
105  -4.75718381243893 -0.63193112971041
106  -4.88505541465278 -0.666201726724168
107  -5.01510165035567 -0.70366646439008
108  -5.14762318775283 -0.745111121663993
109  -5.28299741524561 -0.791452782446289
110  -5.42174818652131 -0.843745846319652
111  -5.56464844732591 -0.903176156266551
112  -5.71286251001634 -0.971015150148808
113  -5.86815639703551 -1.04846757619226
114  -6.03328215512822 -1.13628767759305
115  -6.21286582371794 -1.23397349181216
116  -6.41585737102804 -1.33825337724126
117  -6.82658455999682 -1.49182999582387
118  -7.32353177527145 -1.44753331321225
119  -7.75773003150562 -1.18930348896274
120  -8.05156476171858 -0.787987085932205
121  -8.17983431403448 -0.322001934811108
122  -7.97879651473764 0.536313563158834
123  -7.34111052198151  1.14186810128249
124  -6.48607832909295  1.38736604920344
125  -5.58381525910773   1.3472590876662
126  -4.68877268545662  1.14898387382083
127  -3.79528665783359 0.894535734314861
128  -2.88828957098956  0.65314010621158
129  -1.96062903467661 0.458472332576285
130  -1.01431568403156 0.342327524873702
131  -0.0338570592722894 0.914287886345964
132  0.894723879347579 0.945054363331551
133   1.81759224147136  1.05490802839981
134    2.7351943523162  1.24054522543962
135   3.65792030578075  1.47801183377939
136   4.66692330478786  1.73523418696454
137   5.72841372991793  1.90396393820177
138   6.82260258052032   1.8453761437948
139   7.84327638490794  1.40787638106172
140   8.53701514636846 0.530574100868289
141   8.60190488942979 -0.584692446769633
142   8.27700976844521 -1.23774702882205
143   7.73421189494948 -1.72194440996136
144   7.06795964173503 -2.01089316237637
145   6.35373752289807 -2.13360415780545
146   5.56975826209717 -2.14016603762678
147   5.46218040180857 -2.13138483312702
148   5.35431057522812 -2.12035488567934
149   5.24622195780211  -2.1072146288971
150   5.13793202075599 -2.09211363866921
151   5.02944157284546  -2.0752120666097
152   4.92074972484487 -2.05667929722872
153    4.8118585699498 -2.03669144443573
154   4.70277362879301 -2.01542802456701
155   4.59350291474682 -1.99306834803261
156   4.48405573858391 -1.96978808190053
157   4.37444162563111 -1.94575628551654
158   4.26466947159095 -1.92113308915748
159   4.15474698026738 -1.89606807797056
160   4.04468037700814 -1.87069935814667
161   3.93447435378636 -1.84515322217418
162   3.82413218099609 -1.81954429680782
163     3.713655918593 -1.79397604796773
164   3.60304666968108 -1.76854152448527
165   3.49230483569257  -1.7433242400434
166   3.38143034833325 -1.71839911376041
167   3.27042286649958 -1.69383341060414
168   3.15928193552519 -1.66968764102812
169   3.04800711168697 -1.64601639405151
170   2.93659805768293 -1.62286908942999
171   2.82505461563824 -1.60029064296109
172   2.71337686383764  -1.5783220448611
173   2.60156516237356 -1.55700085507871
174   2.48962019162547 -1.53636162184873
175   2.37754298619942 -1.51643623113475
176    2.2653349658082 -1.49725419517345
177   2.15299796364174 -1.47884288835677
178   2.04053425209679 -1.46122773835017
179   1.92794656530067 -1.44443237977788
180   1.81523811765054 -1.42847877710492
181   1.70241261755833 -1.41338732257825
182   1.58947427569598 -1.39917691430427
183   1.47642780722914 -1.38586501876985
184   1.36327842776655 -1.37346772138252
185   1.25003184300036 -1.36199976792766
186   1.13669423224165 -1.35147459922757
187   1.02327222624596 -1.34190438074419
188  0.909772879865241 -1.33330002839803
189  0.796203640153257 -1.32567123148103
190  0.682572310591584 -1.31902647321677
191  0.568887012101921 -1.31337304926911
192  0.455156141475917 -1.30871708430603
193  0.341388327795491  -1.3050635465971
194  0.227592387345999  -1.3024162605325
195  0.113777277450654 -1.30077791692208
196  -4.79504144333785e-05 -1.30015008091275
197  -0.113874197924026 -1.30053319740701
198  -0.227692367366761 -1.30192659387507
199  -0.341493409030103 -1.30432848055361
200  -0.455268368271635 -1.30773594801348
201  -0.56900843201952 -1.31214496223139
202  -0.682704974408063 -1.31755035719983
203  -0.796349601191249 -1.32394582534036
204  -0.909934192523063 -1.33132390568011
205  -1.02345094359795  -1.3396759701505
206  -1.13689240261039 -1.34899220764976
207  -1.25025150537821 -1.35926160630283
208  -1.36352160603755 -1.37047193282347
209  -1.47669650304697 -1.38260970957521
210  -1.58977046005057  -1.3956601867871
211   -1.7027382208171 -1.40960731108056
212  -1.81559501824971 -1.42443368505614
213  -1.92833657666483 -1.44012052077015
214  -2.04095910830964 -1.45664757681388
215   -2.1534593029031 -1.47399308617324
216  -2.26583431298361 -1.49213365500058
217  -2.37808173231696 -1.51104414985147
218  -2.49019957335331 -1.53069753472907
219  -2.60218623666641 -1.55106469895061
220  -2.71404048483869  -1.5721141994328
221  -2.82576140291546 -1.59381200975278
222   -2.9373483720234 -1.61612112236701
223  -3.04880101412872 -1.63900120665183
224  -3.16011916581622 -1.66240800942102
225  -3.27130278735833 -1.68629293441974
226  -3.38235193534713 -1.71060215604649
227  -3.49326659552931 -1.73527619335704
228  -3.60404665986979 -1.76024861417847
229  -3.71469161711954 -1.78544580632032
230  -3.82520057277268 -1.81078508205731
231  -3.93557170748121 -1.83617510067886
232  -4.04580246788552 -1.86151305572938
233  -4.15588869441841 -1.88668664198079
234  -4.26582528624255 -1.91156976315667
235  -4.37560491521592  -1.9360275922006
236   -4.4852196973575  -1.9599097995129
237  -4.59465940861446  -1.9830609817751
238  -4.70391477985471 -2.00530978189923
239   -4.8129750421306 -2.02648722301014
240  -4.92183308565949 -2.04640967195136
241   -5.0304820892392 -2.06490638523495
242  -5.13892154921015 -2.08179518037637
243  -5.24715167007497 -2.09691653052405
244  -5.35517364882095 -2.11010419452533
245  -5.46297039097235 -2.12121696146665
246  -5.57047070767199 -2.13011319157142
247  -6.35420687434005  -2.1254659385961
248  -7.06857978358076 -2.00664456832278
249  -7.73687519279539 -1.72366742905857
250  -8.28529699882748 -1.24645229524099
251  -8.62027898179394 -0.598952176580602
252  -8.57675878845504 0.516915695900962
253  -7.90073107386462  1.40712998421036
254  -6.88743355375632  1.86099489632878
255  -5.79388333177361  1.93155785722331
256  -4.73128522289569   1.7684273615141
257  -3.72192878393718  1.51113943973332
258  -2.80026212961442   1.2696082561696
259  -1.88403698823266  1.07664188232163
260  -0.961282325606048 0.956705304856268
