// Id               X                Y
  1  -0.0880662418610929  3.75235394932861
  2  0.994145693857266   3.7615595760105
  3   2.07899659977311  3.72656700242216
  4   3.15485382064987  3.61150716548513
  5   4.21030542424253  3.35693842341654
  6   5.17669307179973  2.93293458416346
  7   6.04886740148144  2.55587463764481
  8   6.94844911566899  2.27160921819601
  9   7.86841756632096  2.05461893436825
 10   8.76545657346803  1.78339371435732
 11   9.53788175884474  1.26487109673532
 12   9.77271022525894 0.804997064722419
 13   9.76663362740719 0.287822249628223
 14   9.47757724730106 -0.142588784432345
 15   8.99785734921821 -0.329318127481433
 16   8.49940907722491 -0.242873245041352
 17   8.17983965085559 -0.0893104372496879
 18    8.0904285598026 -0.0358010926589397
 19   8.02074800718576 0.00917153918512308
 20   7.95888670304423 0.0515221388709113
 21   7.89555783342612 0.0971711469146616
 22   7.82681977072208 0.149407739336428
 23    7.7517374016687 0.209582140469342
 24   7.67057006374948  0.27825175076225
 25   7.58389913392835  0.35558233526346
 26   7.49232448651136 0.441549869754568
 27   7.39632777136238 0.535997635839579
 28   7.29621608020093 0.638668554051138
 29   7.19209164825525 0.749224255877518
 30   7.08383452566703 0.867262185233494
 31   6.97108857069866 0.992333919516729
 32    6.8532400966437  1.12397180395136
 33   6.72936219727001  1.26174764013014
 34   6.59800324987646  1.40548231439937
 35   6.45515217235126  1.55729845011701
 36   6.30038921652036  1.71485768761581
 37    6.1366324395841  1.87249022645338
 38   5.96388019515287  2.02795660447853
 39   5.78205700532532  2.17941768912168
 40    5.5912983751386  2.32520983711296
 41   5.39200561805855  2.46384759221108
 42   5.18484214454648   2.5940613548226
 43   4.97070006034251  2.71483625947758
 44   4.75064892277149  2.82544055460842
 45   4.52587528536684   2.9254384783977
 46   4.29762042682043  3.01468627605806
 47   4.06712234450121  3.09331254138712
 48   3.83556638112278  3.16168578278755
 49   3.60404681660461  3.22037306369382
 50   3.37353941757652  3.27009384434528
 51   3.14488184670868  3.31167294506372
 52   2.91875307521714  3.34599614979336
 53   2.69563072446939  3.37397149510466
 54   2.47571162663734  3.39649580905667
 55   2.25890722856654  3.41441691763495
 56   2.04500274260536   3.4284991952459
 57   1.83376840894556  3.43941534923401
 58   1.62497227657998  3.44775266208565
 59   1.41837559389899  3.45401991470221
 60     1.213731275159  3.45865325319367
 61   1.01078454527662  3.46202135036402
 62   0.80927430474772  3.46443000502743
 63  0.608934572347782  3.46612617647477
 64  0.409495771753275  3.46730140903558
 65  0.210685800852644  3.46809459753745
 66  0.0122308972026478  3.46859405223553
 67  -0.186143652931307  3.46883883255745
 68  -0.384712898726279  3.46881932991005
 69  -0.58375163218383  3.46847709014032
 70  -0.783533747494466   3.4677038761979
 71  -0.984331484633756  3.46633998155835
 72  -1.18641449956307  3.46417181540544
 73  -1.39004872572375  3.46092879131602
 74  -1.59549503963687  3.45627956083879
 75  -1.80300785155682  3.44982763713396
 76   -2.0128339986615  3.44110643729464
 77  -2.22521292488038  3.42957369286515
 78  -2.44038011815201  3.41460494929209
 79  -2.65857173457957  3.39548586898351
 80  -2.87998459012072  3.37140838929206
 81  -3.10461399241716  3.34148979300035
 82  -3.33213957274797  3.30481299147957
 83  -3.56198758436776  3.26046224624069
 84  -3.79340230276563   3.2075586132474
 85  -4.02547690857615  3.14530198442268
 86  -4.25717186322106   3.0730178585681
 87  -4.48733703348573  2.99020546688404
 88  -4.71474375888202   2.8965834789837
 89  -4.93812858863244  2.79212913228887
 90  -5.15624766336923  2.67710657535755
 91  -5.36793844789095  2.55208075813532
 92  -5.57218353408255    2.417914500112
 93  -5.76816960466148  2.27574850225542
 94   -5.9553333313162   2.1269671754987
 95  -6.13338404676593  1.97315809677291
 96  -6.30228526644479  1.81608492361183
 97  -6.46212666298435  1.65775234345119
 98  -6.61209317558921  1.50143630891705
 99  -6.74815351220697  1.35426701982602
100  -6.87523248570104   1.2135487188976
101  -6.99545302746163  1.07894265003629
102  -7.10997082048189 0.950790756355236
103  -7.21953976806235 0.829554508878969
104  -7.32462477759952 0.715701590306644
105  -7.42543870847048 0.609664897276287
106  -7.52196127460799  0.51181955310357
107  -7.61395769177021 0.422464053424164
108  -7.70100825243329  0.34179937148773
109   -7.7825655081444 0.269897059857718
110  -7.85808012597582 0.206631227702124
111  -7.92731150207198  0.15150017129248
112  -7.99114160684562 0.103139383537287
113  -8.05351116967528 0.0581907049030534
114  -8.12358433553315 0.0104233625918472
115  -8.21303937704948 -0.0463090323249193
116  -8.52935789434359 -0.20968378480404
117  -9.02486006645579 -0.312962997280041
118  -9.51120421229185 -0.144945396406576
119  -9.81704712546767 0.273130747387454
120  -9.84271153858162 0.789105870019164
121  -9.62337631788044  1.25597689194277
122  -8.86350779980718  1.79221595638363
123  -7.97280676923354  2.07507667027669
124   -7.0579467381386  2.29596715284939
125  -6.16055303748556  2.57667776974361
126  -5.28881329855323  2.94622802074654
127  -4.38204468700397  3.34579391668259
128  -3.33956784209442  3.60472101207008
129  -2.27085507881437  3.72608135513421
130  -1.18067461908421  3.72149921046443
131  -0.0245355578728481  4.33630806772769
132   1.05556379540768  4.34430312036159
133   2.13394466171072  4.30943690555645
134   3.20643781126346  4.19420436042243
135   4.25608787610653   3.9393914849227
136   5.25534101606433  3.51882023670533
137   6.26300220827054  3.11866872759141
138   7.29095703488775  2.77736175754863
139   8.33107789639831  2.46096241101425
140   9.33496469041828  2.01764818112814
141   10.0966066901402  1.21619899789716
142   10.2484923357236 0.518835384211461
143   10.0601370762375 -0.168376005788244
144   9.56858888600119 -0.680028743251612
145   8.96441053011663 -1.04236441679092
146    8.7082402408442 -1.72618018547428
147   8.53529659600025 -1.88799939620943
148   8.28093354168293 -1.95147978513307
149   8.01887803822903 -1.96475139907317
150   7.75835047586284 -1.93490678934879
151   7.50620505694817 -1.87073972666708
152   7.26570904046077 -1.78078445622251
153   7.03791796000612  -1.6713841515205
154   6.82284660503272 -1.54718319315527
155   6.62000938453973  -1.4117308191114
156    6.4286630615014 -1.26786024373586
157   6.24792408904627 -1.11791750714013
158   6.07683188821813 -0.963909498485019
159     5.914388535282 -0.807607412576311
160   5.75959104615216 -0.650623943943465
161   5.61146828850556 -0.494475119527166
162   5.46913660957436 -0.340637216982705
163   5.33190185066185 -0.190625121576317
164   5.19951217469148 -0.0462324615328782
165   5.07414680842562 0.0882241427935335
166   4.95418023615878 0.212646595224749
167    4.8347409399908 0.330571091401057
168   4.71439912982656 0.442234535365021
169   4.59223367975046 0.547568060647932
170   4.46754827590522 0.646456914083116
171   4.33981106292454 0.738797390383277
172    4.2086274509041 0.824520729882176
173   4.07371807849606 0.903606440116088
174   3.93489672515464 0.976089813330233
175   3.79204810296189  1.04206489471712
176   3.64510677839181  1.10168351985623
177   3.49403863978163    1.155151136038
178   3.33882610492419  1.20272033415169
179   3.17945804074244  1.24468314630363
180   3.01592551409824  1.28136316331868
181   2.84822572009427   1.3131083489003
182   2.67638077651695  1.34028479835459
183   2.50048926286369  1.36327011623914
184   2.32082046583094  1.38244588021736
185   2.13783153324451  1.39819905317146
186   1.95201541508265  1.41092936213234
187   1.76379881779334  1.42104174567341
188   1.57354163229675   1.4289316994135
189   1.38155365738251  1.43497344587698
190   1.18810711214361  1.43951142442031
191  0.993445595064918  1.44285423517643
192  0.797790900380733  1.44527036700543
193  0.601348401421485  1.44698520930538
194  0.404311382869604  1.44817898287356
195  0.206864580329431  1.44898533252587
196  0.00918713702388791  1.44949040558169
197  -0.188544834471687  1.44973230130906
198  -0.386155908596353  1.44970082355299
199  -0.583469049549732  1.44933750774027
200  -0.78030318935275  1.44853592904085
201  -0.976470506496432  1.44714233500909
202  -1.17177322174133   1.4449566880169
203  -1.36599971122317  1.44173425546747
204  -1.55891970447922  1.43718795552669
205  -1.75027825997366  1.43099175996042
206  -1.93978801448564  1.42278557869807
207  -2.12711869050327  1.41218220494415
208  -2.31188199046397   1.3987771089303
209  -2.49361435535118  1.38216197051616
210  -2.67180527046734  1.36193902766242
211  -2.84605173958577   1.3377220845851
212  -3.01616358542653  1.30912804890737
213  -3.18208591315361  1.27578046950447
214  -3.34381379736967    1.237317253982
215  -3.50135591190875  1.19339686142031
216    -3.654723061732  1.14370493658954
217  -3.80392823846312  1.08796200239422
218  -3.94899372163145  1.02593158455732
219  -4.08996357544963 0.957427747362111
220  -4.22692056236853 0.882320926529646
221  -4.36000642438165 0.800540999398751
222  -4.48944420703567 0.712076707067734
223  -4.61556119286076 0.616970737898795
224  -4.73881161040726 0.515309631219899
225  -4.85980104960674 0.407205980759447
226  -4.97932575719476  0.29276213890039
227  -5.09850133810174 0.171952920446299
228  -5.21982168812686 0.0435853665272636
229  -5.34949469747899 -0.0971303084955093
230   -5.4845262885893 -0.245046880555784
231  -5.62455930310999 -0.39775088750576
232  -5.77012344354147 -0.553589642370113
233  -5.92205080148411 -0.711036379879851
234  -6.08131456200973 -0.868553225088832
235   -6.2489519367914 -1.02452065884162
236  -6.42601787865323  -1.1771710242921
237   -6.6135491253114 -1.32450882420169
238  -6.81252456007103 -1.46420510636797
239  -7.02380556765261 -1.59344636361381
240  -7.24802763103921 -1.70869951353713
241  -7.48537550109593 -1.80531899080712
242  -7.73506213290076 -1.87691588510646
243  -7.99414740692091 -1.91482800847255
244  -8.25612027904785  -1.9100164455657
245  -8.51210600136153 -1.85502423671769
246  -8.68997379131486 -1.69906825091586
247  -8.96968981718427 -1.02455875826794
248  -9.58682521618043 -0.684244010079671
249   -10.096550460186 -0.190301547428713
250  -10.3077828636712 0.490737227159969
251  -10.1747054482804  1.19285884303354
252  -9.43610315718968  2.01717152344756
253  -8.43757858924931  2.47846065028268
254  -7.39611544066705  2.80444889503367
255  -6.36285298921452  3.14589569748997
256  -5.34943625409768  3.54598610763444
257  -4.32653130142292  3.92911417337082
258  -3.26819576540089  4.18629022534203
259  -2.18903687997808  4.30479209822806
260  -1.10700518021255  4.30591615635063
