// Id               X                Y
  1  -0.412860965638839  6.88183225617473
  2   0.66452565586271  6.84731032562346
  3   1.71485869494809  6.63204891013508
  4   2.70585151331997  6.24811728183777
  5   3.61999815409315  5.71280252012032
  6    4.5255159751071  5.14392316732112
  7    5.4330011736495  4.59542286442399
  8   6.34150083568221  4.07328504374641
  9   7.20471990523218  3.57534013673221
 10   7.99346649331287  3.05767761850069
 11   8.69880981126581  2.44608772557224
 12   9.00629576618472  2.01135986789532
 13   9.18491002970822  1.49363046594777
 14   9.11968311104613 0.932158072787745
 15   8.76659815524374 0.541768832235617
 16   8.12700850823362  0.49351326181849
 17   7.99763989452755 0.518645689765185
 18   7.87775081142381  0.55234536126487
 19   7.76244838978058 0.594171756293258
 20   7.64811185760974 0.644874274907707
 21   7.53289746255306 0.705481014422955
 22   7.41634459801199 0.776833830314214
 23   7.29878992286236 0.859444800922945
 24   7.18091791019484 0.953491684530273
 25   7.06348290952749  1.05885468641025
 26   6.94714920656932  1.17516344583586
 27   6.83240244634122  1.30184754070053
 28   6.71950612522923   1.4381882663875
 29   6.60848954937486  1.58336857743293
 30   6.49915895186326  1.73651740903015
 31   6.39112501633403  1.89674534441951
 32   6.28384056145537  2.06317024955308
 33   6.17664279398377  2.23493323610584
 34   6.06879556995557   2.4112065821895
 35   5.95952834852402  2.59119584228141
 36   5.84806975314554  2.77413838545778
 37   5.73367471443295  2.95930021578714
 38   5.61564499325973  3.14597237209353
 39   5.49334347017948  3.33346765240294
 40   5.36620296647824  3.52111796786473
 41    5.2337305694328  3.70827234281784
 42   5.09550850438244  3.89429543385519
 43    4.9511925611803  4.07856640747411
 44   4.80050897237737  4.26047804835137
 45   4.64325048479818  4.43943603266073
 46    4.4792721885338    4.614858359886
 47    4.3084874936874  4.78617498482666
 48   4.13086448315098  4.95282770905136
 49   3.94642274333368  5.11427039991082
 50   3.75523066778727  5.26996957795477
 51    3.5574031738695  5.41940540280183
 52    3.3530997219849  5.56207303586289
 53   3.14252253377974  5.69748435926291
 54   2.92591488644163   5.8251699745491
 55   2.70355939969184  5.94468143699697
 56   2.47577621797368  6.05559362492435
 57   2.24292104106412  6.15750720343231
 58   2.00538293989089  6.25005107776254
 59    1.7635819485637  6.33288480853866
 60   1.51796640579766  6.40570088943885
 61   1.26901006916168   6.4682268757086
 62   1.01720900495425  6.52022727862724
 63  0.763078295463827  6.56150523286394
 64  0.507148582272315  6.59190387169537
 65  0.249962490668826  6.61130743270357
 66  -0.00792904143111663   6.6196420466886
 67  -0.265970489687223  6.61687624112155
 68  -0.523605500836665  6.60302112310466
 69  -0.780280646944244  6.57813027585182
 70  -1.03544915201657  6.54229934182047
 71  -1.28857456044094   6.4956653270114
 72  -1.53913432124488  6.43840560704668
 73  -1.78662326027809   6.3707366716558
 74  -2.03055691325378  6.29291259807534
 75  -2.27047469562656  6.20522329608322
 76  -2.50594288504926  6.10799252920677
 77  -2.73655740130334  6.00157576518236
 78  -2.96194637007858  5.88635787791273
 79  -3.18177247301789  5.76275076639062
 80  -3.39573509164516  5.63119093098135
 81  -3.60357227481635  5.49213708211075
 82  -3.80506256812168  5.34606783424482
 83  -4.00002676758432  5.19347955998144
 84  -4.18832966819638  5.03488445603402
 85  -4.36988189466323   4.8708088788875
 86  -4.54464189908051  4.70179198133944
 87  -4.71261820540004  4.52838467250964
 88  -4.87387195114292   4.3511488963923
 89  -5.02851973326425   4.1706572102519
 90   -5.1767366934164  3.98749262647237
 91  -5.31875968532248  3.80224867982111
 92  -5.45489025008458  3.61552968963183
 93   -5.5854969937845  3.42795121195667
 94  -5.71101682398037  3.24014071310507
 95  -5.83195437415443  3.05273853714155
 96  -5.94887884625631  2.86639926735499
 97  -6.06241745356813  2.68179357212648
 98  -6.17324467265038  2.49961054969734
 99  -6.28206663845961  2.32056041824574
100  -6.38960026531534  2.14537712461929
101  -6.49654707168207  1.97482008129095
102    -6.603562246781  1.80967383950894
103  -6.71122022457638  1.65074416350419
104  -6.81997889893439  1.49884881491146
105  -6.93014555722948  1.35480151540967
106  -7.04184854159809  1.21938809088023
107  -7.15501954431527  1.09333462187442
108  -7.26939255858472 0.977268212274184
109  -7.38452774825561 0.871671205745679
110   -7.4998738801838 0.776828890179924
111   -7.6148943597991 0.692769659726449
112    -7.729299439838 0.619199870000277
113  -7.84343448840946 0.555456632067615
114  -7.95881234855648 0.500562518012155
115  -8.07855262012997 0.453562795589554
116  -8.20713608716154 0.414338757983827
117   -8.8620040485919 0.387802697120264
118  -9.25511739384374 0.734139646801051
119  -9.37966989840965  1.27438965441929
120  -9.25337582596797  1.80061792132186
121  -8.98224654240067  2.25304629941403
122  -8.30819571468684  2.89287761522284
123  -7.53631969776129  3.42019546447529
124  -6.70649023020012  3.89671010660218
125  -5.85068275405841  4.37526581873712
126   -5.0148122335091  4.87350932273282
127  -4.22155771729572  5.39577646633437
128  -3.43297827015326  5.92887019739843
129  -2.49573555186928  6.40781882950304
130  -1.45294629471716  6.67770687790139
131  -0.0933592730510738  7.36630045015643
132   1.00513375911509  7.31910031397537
133   2.07119246154657  7.08628124207103
134   3.07337097392027  6.69025990726176
135   4.00399801954675  6.18433548087036
136   4.90279288583994  5.63488354676819
137    5.8074043731592  5.08912687060226
138   6.72782906351988   4.5574029479861
139    7.6487110760909  4.00830449507469
140   8.52582079925509  3.37013900221904
141   9.25157197081998  2.55214037698889
142   9.54286127356574  1.91444386324769
143   9.64454642149751  1.22400267254297
144   9.53136146132374 0.545010230571145
145   9.21694182743286 -0.0580075388469318
146   8.71232467927347 -0.553702364614398
147    8.3977461804829 -0.722102394669128
148   8.07417882483956 -0.824102909756199
149   7.75253034105033 -0.866896074734059
150   7.44108439086856 -0.858639155301709
151   7.14519165627167 -0.807715178220788
152   6.86766849554056 -0.721955283867566
153   6.60952143456831 -0.608227550103444
154    6.3705988113337 -0.47236331801653
155   6.15004314127509 -0.319246678041795
156    5.9465774738296 -0.152946955140333
157   5.75868667098382 0.0231545640574438
158   5.58473702684752 0.206255661170006
159   5.42305841880667 0.394041863019196
160   5.27200163448414 0.584610345768052
161   5.12997793155249 0.776406639200099
162   4.99548530827604  0.96817179699279
163   4.86712463964094  1.15889773114846
164   4.74360805046344  1.34778859196576
165    4.6237613835506  1.53422646737099
166   4.50652233684714  1.71774024174068
167   4.39093552865088  1.89797694524013
168   4.27614582649289  2.07467554181058
169   4.16139045394156  2.24764298560831
170   4.04599167697895   2.4167334709879
171   3.92934835004809  2.58182958597436
172   3.81093135558938  2.74282872006537
173   3.69027394265952  2.89962819876757
174   3.56697399777061  3.05212153444057
175   3.44067828815527  3.20018255014427
176   3.31109853149124  3.34367724354214
177   3.17797972012741  3.48243596055321
178   3.04114082530323  3.61629246965867
179     2.900414056116  3.74502640148902
180   2.75572225570528  3.86844735016487
181   2.60697785399137  3.98628557883867
182   2.45420382475477  4.09834080399972
183   2.29738990147611  4.20430213081714
184   2.13665248763676  4.30397458982076
185   1.97205845807495   4.3970208500938
186   1.80380707388803  4.48326421510341
187   1.63204208587678  4.56236090830779
188   1.45703216540738   4.6341622467932
189   1.27899485331855   4.6983402032713
190   1.09825388039394  4.75478120940673
191  0.915093331931745  4.80319377305493
192  0.729878080768475  4.84350518242464
193  0.542947318529653  4.87547724407388
194  0.354693596421499  4.89908337238509
195  0.165496355204297  4.91415021550543
196  -0.0242378558786847  4.92070196976356
197  -0.214106429807483  4.91863629948335
198  -0.403703173282016  4.90803126666763
199  -0.59262032949364  4.88885680043183
200  -0.780466936846256  4.86124519644632
201  -0.96684791279636  4.82523567741164
202  -1.15140226143417   4.7810116063376
203  -1.33376438295515   4.7286750723536
204  -1.51361695239175   4.6684535345394
205  -1.69063912681552  4.60050275455973
206  -1.86456910836862  4.52508381501538
207  -2.03514424416878  4.44239472542223
208  -2.20216775353116  4.35271703376701
209  -2.36544654400647  4.25627773007628
210  -2.52485592777848  4.15336418805391
211  -2.68028147826446  4.04421765338011
212  -2.83167573262894  3.92911660087025
213  -2.97900968878966   3.8083010192546
214  -3.12231716968376  3.68202706738803
215  -3.26165931198511  3.55051847327151
216  -3.39715525214771  3.41399836545187
217  -3.52895990107283   3.2726618990083
218   -3.6572827806251  3.12669291722276
219  -3.78237687677976   2.9762515182847
220  -3.90454950069578  2.82148311715106
221  -4.02415906556787  2.66251604848421
222  -4.14162219189527  2.49946907217617
223  -4.25741575994923  2.33245624658383
224  -4.37208350540627  2.16159688820271
225  -4.48624168944222  1.98702666105077
226  -4.60058686736406  1.80891214727458
227   -4.7159039783209  1.62746784074463
228  -4.83307523997316  1.44297613409732
229  -4.95308895378828  1.25581008093599
230  -5.07704768043933  1.06645918082863
231  -5.20617478675006 0.875558490207335
232  -5.34181824946534 0.683921760534016
233  -5.48545031537723 0.492579702878713
234  -5.63866132878961 0.302824953868184
235  -5.80314560444551 0.116265771990916
236  -5.98067654841854 -0.0651090532200164
237  -6.17306699222005 -0.238851039998968
238  -6.38210814475674 -0.401954730175139
239  -6.60947502709852 -0.550737509423447
240  -6.85657501912125 -0.68069273240636
241  -7.12429725835104 -0.786321666419351
242   -7.4126010957663 -0.860980923318438
243   -7.7198966818943 -0.896847389984046
244  -8.04229260700551 -0.885169856511513
245  -8.37302718228782 -0.816903916577805
246  -8.70248661197442 -0.683482257747824
247  -9.25736625373734 -0.248988883520968
248  -9.63675359208409 0.315792116452054
249  -9.81896727378464 0.979477870727683
250  -9.77911740930319   1.6765408625581
251  -9.53418481836232  2.33458283932462
252  -8.84897803171904  3.18858997277436
253  -7.98458717729898  3.84915046590342
254  -7.06218092327155  4.40388334121443
255  -6.12865111016431  4.92931807856094
256  -5.19646412686875  5.46563358804669
257  -4.25480735644682  6.01068041856973
258  -3.28083992806748  6.52198331555796
259  -2.25715816071482   6.9442753445593
260  -1.19072583860003  7.23164187666899
