// Id               X                Y
  1  -0.101871967173572   2.6668405700052
  2  0.838398785976623  2.62449097148837
  3   1.76425326493955  2.49181938560269
  4   2.68114133173573  2.28901520908351
  5   3.61229385123606  2.19408105197352
  6   4.54273887176705  2.28332095862579
  7   5.44292876593046  2.52811706886632
  8   6.32993090201391  2.80787814460015
  9   7.24946666484602  2.90517785442759
 10   8.08748483179742  2.52560012408513
 11   8.32345884317046  1.64875190854763
 12   8.08050798308587  1.19127759329155
 13    7.6475988565168 0.892311929019184
 14   7.12524967569072 0.775213081711953
 15    6.5939087635648  0.81025649540735
 16   5.91731260310579  1.01581292900803
 17   5.82056300788198  1.04257039961757
 18   5.72085821504604  1.06963409167165
 19   5.61850247849681  1.09718050146113
 20   5.51379638994042  1.12523631592952
 21    5.4070925821124  1.15398942825223
 22   5.29868938009865  1.18347526201718
 23   5.18888233075225  1.21381292602049
 24   5.07791005421815  1.24502430530138
 25   4.96598430404925  1.27714678251161
 26   4.85327195840823  1.31016322192791
 27   4.73990977097607  1.34404485278716
 28   4.62600191244947  1.37873225364869
 29   4.51162771111803  1.41415117848745
 30   4.39684395619035   1.4502104328789
 31   4.28168969542378  1.48680870128085
 32    4.1661892683631  1.52383641177889
 33   4.05035562946463  1.56117934087932
 34   3.93419293168979  1.59872067240176
 35   3.81769887917514  1.63634309171245
 36   3.70086664448225  1.67393023816009
 37    3.5836864913227  1.71136790800358
 38   3.46614708994783  1.74854491418356
 39    3.3482365839958  1.78535372634675
 40    3.2299434340536  1.82169090934452
 41   3.11125707491925  1.85745741548117
 42   2.99216841434004  1.89255875933387
 43   2.87267020036783  1.92690510598547
 44   2.75275727997732  1.96041129410868
 45   2.63242676888606  1.99299681207689
 46   2.51167814934897  2.02458574057954
 47   2.39051331012483  2.05510667226405
 48   2.26893654043168  2.08449261622924
 49   2.14695448769077  2.11268089324245
 50   2.02457608711965  2.13961302599316
 51   1.90181246977281  2.16523462754715
 52   1.77867685439691   2.1894952903021
 53   1.65518442744335  2.21234847712164
 54   1.53135221472973  2.23375141587563
 55   1.40719894753498  2.25366499829969
 56   1.28274492532573  2.27205368386907
 57   1.15801187682363  2.28888540923428
 58   1.03302282071686  2.30413150366521
 59  0.907801926979862  2.31776661088264
 60  0.782374379480885  2.32976861760798
 61  0.656766240319885  2.34011858912465
 62  0.531004316141163   2.3488007121133
 63  0.405116026501049  2.35580224499217
 64  0.279129274236729  2.36111347596249
 65   0.15307231767467  2.36472768892431
 66  0.0269736444339039   2.3666411373913
 67  -0.0991381534812842  2.36685302649265
 68  -0.225234503643959  2.36536550310884
 69  -0.351286976585885   2.3621836541441
 70  -0.477267408959826  2.35731551289565
 71  -0.60314802682394  2.35077207343673
 72  -0.728901569348463   2.3425673128906
 73  -0.854501413183671  2.33271822143444
 74  -0.979921697645766  2.32124483983829
 75  -1.10513745077272  2.30817030431321
 76   -1.2301247161732  2.29352089841526
 77    -1.354860680436  2.27732611172577
 78   -1.4793238006811   2.2596187050012
 79  -1.60349393161201    2.240434781454
 80   -1.7273524511652   2.2198138637818
 81  -1.85088238353856  2.19779897649898
 82  -1.97406851800557  2.17443673302775
 83  -2.09689752147157  2.14977742686058
 84  -2.21935804218581   2.1238751258888
 85  -2.34144080136796  2.09678776867581
 86   -2.4631386687167  2.06857726099969
 87  -2.58444671681082  2.03930957035478
 88  -2.70536224825948   2.0090548152268
 89  -2.82588478807769  1.97788734477364
 90  -2.94601603212127  1.94588580297243
 91  -3.06575974048123  1.91313316924098
 92  -3.18512156249333  1.87971676490636
 93  -3.30410877745967  1.84572821156663
 94  -3.42272993231646  1.81126332327952
 95  -3.54099435437158  1.77642190954065
 96  -3.65891151395883  1.74130746017032
 97  -3.77649020857049  1.70602667660514
 98  -3.89373753700767  1.67068880692955
 99  -4.01065762954072  1.63540473484534
100  -4.12725009834033  1.60028576663644
101  -4.24350817249208  1.56544205643741
102  -4.35941648439325  1.53098061113316
103  -4.47494847937703  1.49700282568154
104  -4.59006343087489  1.46360152177283
105  -4.70470306365414  1.43085750301054
106  -4.81878781896192  1.39883570602174
107  -4.93221284644671  1.36758112572195
108    -5.044843900217  1.33711482575078
109  -5.15651346688615  1.30743051005146
110  -5.26701768794534  1.27849230775448
111   -5.3761150243364  1.25023455387257
112  -5.48352820042423  1.22256432700098
113  -5.58895176830895  1.19536718242427
114  -5.69206844225853    1.168515724332
115  -5.79257659291853    1.141879623655
116  -5.89022333360587  1.11533602420473
117  -6.56694999657521 0.906859069879171
118  -7.09944697681389 0.859319491736142
119  -7.62837508300171 0.952759689646251
120  -8.08200176484648  1.22009740951228
121  -8.36723340844926  1.65057489689531
122  -8.23858750735979  2.54814661691392
123  -7.44064762687464  3.00079092517444
124  -6.51955766087053  2.94043106196069
125  -5.63587962156851  2.66040012313478
126  -4.74684247508086  2.38882599475235
127  -3.82502799693762  2.25638383708503
128   -2.8941524057263  2.30500632267293
129  -1.97430615264854   2.4744366389107
130  -1.03756282964634  2.58389700445757
131  -0.0924165620281199  3.26108310925238
132  0.852703187458072  3.23062762144503
133   1.78788532923521  3.09300584864446
134   2.71318298527895  2.90009136172198
135   3.64953123183431   2.8059743176961
136    4.5882506539505  2.89631981152711
137   5.51862874840577  3.13813557773332
138   6.53259428639478  3.38875219338636
139   7.59676425981347  3.40245328334242
140   8.53482810618139  2.90487494462243
141   8.89117401037959  1.90695104542361
142   8.72126678762162  1.24784450552173
143   8.27593839583704 0.732950286806871
144   7.66995160708077  0.42532136386723
145   7.02855689107893 0.223079421747604
146    6.5740914413456 -0.0465085315639791
147   6.34032299521535 -0.125736988854975
148   6.11276299267888 -0.171703238669098
149    5.8949290682561 -0.191449233923915
150   5.68849264607353 -0.191728903738597
151   5.49369229222083 -0.178132312158324
152   5.30989190706739 -0.154918175087874
153   5.13602577357283 -0.125169139098135
154   4.97088949715526 -0.0910474080238334
155   4.81330533438489 -0.054043171700764
156   4.66220226690954 -0.0151763822733671
157   4.51664496422191 0.0248535718564574
158   4.37583510767677 0.0655624306282703
159   4.23909961956976 0.106608996156767
160   4.10587401055183 0.147746736771368
161   3.97568512475696 0.188791623098151
162    3.8481352676219 0.229600900604023
163   3.72288848053922 0.270059160107712
164   3.59965909233541 0.310069256544091
165   3.47820238117757 0.349546439904449
166     3.358307069055 0.388414606524551
167   3.23978934754015 0.426603941497538
168   3.12248814963413 0.464049465372914
169   3.00626141812268 0.500690159864752
170   2.89098316106565 0.536468455926755
171   2.77654112270272 0.571329941257342
172   2.66283493175141 0.605223194233113
173   2.54977461790804 0.638099685048512
174   2.43727941103259  0.66991370764121
175   2.32527675667361 0.700622321163273
176   2.21370149690727 0.730185289665998
177   2.10249517749207 0.758565014959477
178   1.99160545171411 0.785726461424977
179   1.88098555853255 0.811637073712512
180   1.77059385815427 0.836266689325119
181   1.66039341235708 0.859587448469379
182   1.55035160004096 0.881573703514912
183   1.44043976084609 0.902201930143232
184   1.33063286142769 0.921450641899769
185   1.22090918027532 0.939300309468731
186   1.11125000791796 0.955733285616232
187    1.0016393600529   0.9707337364179
188  0.892063701645393 0.984287579113815
189  0.782511680416785 0.996382426718302
190   0.67297386840823  1.00700753935227
191  0.563442510502404  1.01615378215544
192  0.453911278927941  1.02381358956821
193  0.344375032874581  1.02998093574038
194  0.234829582422049  1.03465131082043
195   0.12527145603973  1.03782170289726
196  0.0156976709528153  1.03949058540185
197  -0.0938944943029558   1.0396579098233
198  -0.203507725798879  1.03832510364885
199  -0.313144899255392  1.03549507349625
200  -0.422809304859618  1.03117221346618
201  -0.532504872515349  1.02536241879854
202  -0.642236398196595  1.01807310496576
203  -0.752009772099339  1.00931323237445
204  -0.861832209321214 0.999093336869969
205  -0.97171248384906 0.987425566239911
206  -1.08166116670471 0.974323722888064
207  -1.19169086919741 0.959803312790941
208   -1.3018164923672 0.943881600748547
209  -1.41205548389151 0.926577671790664
210  -1.52242810398824 0.907912498392158
211  -1.63295770220961  0.88790901287916
212  -1.74367100751827 0.866592184069179
213  -1.85459843472218 0.843989096784775
214  -1.96577441128463 0.820129032423421
215  -2.07723772980868 0.795043548282436
216  -2.18903193323071 0.768766552876924
217  -2.30120574210134 0.741334374130395
218  -2.41381353647531 0.712785817188576
219  -2.52691590910139 0.683162208901483
220   -2.6405803121032 0.652507427017797
221  -2.75488182655096 0.620867914238397
222   -2.8699040936627 0.588292681059636
223    -2.985740458359 0.554833307605028
224  -3.10249539115533 0.520543964512105
225  -3.22028627347275 0.485481488017292
226   -3.3392456550475 0.449705566915866
227  -3.45952412086658 0.413279132289191
228  -3.58129393867559 0.376269089721934
229  -3.70475369593283 0.338747605396517
230  -3.83013417579311  0.30079426263208
231  -3.95770575820722 0.262499561512801
232  -4.08778765108895 0.223970467812363
233  -4.22075923877978 0.185339066937381
234  -4.35707373407465 0.146775904086267
235  -4.49727404243074  0.10851038022885
236  -4.64201015351548 0.0708617281656518
237  -4.79205621409912 0.0342857160967329
238  -4.94832325907596 -0.000555662777749424
239  -5.11185979882212 -0.0326919833936136
240  -5.28382643252596 -0.0606988808049597
241  -5.46542198233797 -0.0825011846063148
242  -5.65772855639105 -0.0951294613164616
243  -5.86143688800434 -0.0944678872111649
244  -6.07642600909226 -0.0750983757834999
245  -6.30123977295477 -0.0304596726566372
246  -6.53271716780393 0.0462953553690742
247  -6.98817142564696 0.309011584570899
248  -7.63320802178803  0.48922430603733
249  -8.25313646144456 0.763912936401596
250  -8.73304359906595   1.2465978410802
251  -8.95918275993012  1.89032141508824
252  -8.69328486301481  2.91830411766606
253   -7.7946115677246  3.48365573687226
254  -6.73044198208261  3.51764234494134
255  -5.71040307449847  3.27061479279326
256  -4.77896590710049   3.0027686065864
257  -3.84322486219121  2.86938623695396
258   -2.9025468422056  2.91712998416757
259  -1.96916963061873  3.07180065812666
260   -1.0315860090884  3.19244509159862
