// Id               X                Y
  1  -0.063198281782039 0.467923671849855
  2  0.917980288187989 0.434450104530277
  3   1.87834806765299 0.489465170125765
  4   2.82105673060847 0.618938817719313
  5   3.74354243778164 0.802131844547486
  6    4.6498776837356  1.01137252130813
  7    5.5520618187407  1.17923344624771
  8   6.45538265100081  1.20078729182806
  9   7.30599930526818 0.941155323886956
 10   7.92405575029734 0.315492963609104
 11   8.05729667234007 -0.555507608799513
 12   7.87641045840773 -1.00300308838546
 13   7.53345251961999 -1.36085101395753
 14   7.07262098920792 -1.55906664240313
 15   6.57632242141492 -1.55086602702165
 16   6.18236750072579 -1.37381710600386
 17   5.98753899733914  -1.2615709020133
 18   5.81201582009427 -1.15747463780635
 19   5.64665385785901 -1.06372032426519
 20   5.48807081297345 -0.980960957246351
 21   5.33532773480395 -0.908720843540894
 22   5.18844639445562 -0.845793385031909
 23   5.04752213940139 -0.790596492684534
 24   4.91233211976922 -0.741492930568539
 25   4.78230987393364 -0.697011310973704
 26   4.65668404739552 -0.65594643379409
 27   4.53463026162277 -0.617371240466565
 28   4.41537478897158 -0.580604435829904
 29   4.29824565150561 -0.545164337433073
 30   4.18268671247871 -0.51072392153531
 31   4.06825126052125 -0.477072385155907
 32   3.95458679233116 -0.444084116571603
 33   3.84141782404199 -0.411694386415421
 34   3.72853008760146 -0.379880692183687
 35   3.61575736826616 -0.348648714753919
 36   3.50297112404291 -0.318021971554759
 37    3.3900725254105 -0.288034383563182
 38   3.27698640018681 -0.258725094968858
 39   3.16365659197798 -0.230134996586884
 40   3.05004233394378 -0.202304505931558
 41   2.93611534784905 -0.175272247721275
 42   2.82185747424576 -0.149074358567206
 43   2.70725870928337 -0.123744206390037
 44   2.59231556958801 -0.0993123694214548
 45   2.47702973478285 -0.0758067641025584
 46   2.36140692999783 -0.0532528455767212
 47   2.24545601609794 -0.03167383046494
 48   2.12918825896305 -0.011090911989886
 49   2.01261674981364 0.00847654821823655
 50   1.89575594968901 0.0270108579748458
 51   1.77862133489982 0.0444958616161089
 52   1.66122912270419 0.0609168323803379
 53   1.54359605911581 0.0762603851452212
 54    1.4257392553845 0.0905144038802068
 55   1.30767606223828 0.103667978827076
 56    1.1894239728133 0.115711349946132
 57   1.07100054863168 0.126635853850997
 58  0.952423364230804 0.136433872568478
 59  0.833709966364658 0.145098783849828
 60  0.714877845822857 0.152624913013847
 61   0.59594442017552 0.159007486798318
 62   0.47692702510292 0.164242590419642
 63  0.357842913417558 0.168327128731335
 64  0.238709260801857 0.171258792375984
 65  0.119543176235842 0.173036030131353
 66  0.00036171631232454 0.173658028085226
 67  -0.11881809743396 0.173124696093754
 68  -0.237979260236632 0.171436662124593
 69  -0.357104765733008  0.16859527447201
 70  -0.476177588350789 0.164602611631478
 71  -0.595180668506282 0.159461499716165
 72  -0.714096901540619 0.153175536717501
 73  -0.832909131132311 0.145749122773317
 74  -0.951600149233144 0.137187495730155
 75  -1.07015270355106 0.127496770849619
 76  -1.18854951340624 0.116683983593327
 77  -1.30677329633836 0.104757134778638
 78   -1.4248068071967 0.0917252373619704
 79   -1.5426328915982 0.0775983647194494
 80  -1.66023455788048 0.062387701188877
 81  -1.77759507196864 0.0461055962509669
 82  -1.89469808071273 0.0287656249892093
 83  -2.01152777280962 0.0103826587632193
 84  -2.12806908820717 -0.0090270492375819
 85   -2.2443079893378 -0.0294457580607762
 86  -2.36023181229968 -0.0508541072852606
 87  -2.47582971869981 -0.0732309559827055
 88   -2.5910932712431 -0.0965531920422864
 89  -2.70601716006672 -0.120795517757537
 90   -2.8206001079178 -0.145930227676485
 91   -2.9348459829812 -0.171927008694183
 92  -3.04876515207504 -0.198752812141018
 93  -3.16237611235049 -0.226371874323185
 94  -3.27570745249147 -0.254745995927526
 95  -3.38880022275701 -0.283835234451086
 96  -3.50171083894029 -0.313599218625501
 97  -3.61451471463274 -0.343999359960344
 98   -3.7273109117758 -0.375002315564414
 99  -3.84022820684915 -0.40658514780164
100  -3.95343306278029 -0.438742727608237
101  -4.06714002000339 -0.471498040733441
102  -4.18162486744547  -0.5049161796361
103  -4.29724045385205 -0.539122939414127
104  -4.41443389125138 -0.574329065688339
105  -4.53376181015362 -0.61086123886009
106  -4.65589686709348 -0.649200510385526
107  -4.78161383460658 -0.690027351647834
108   -4.9117387963485 -0.734268074508826
109  -5.04704579124956 -0.783127767315538
110  -5.18810496262019 -0.838079247804419
111  -5.33514284570012 -0.900763824695227
112  -5.48806511034731 -0.972770964212353
113  -5.64684440862012 -1.05531738654448
114  -5.81240445396892 -1.14889025373298
115  -5.98810224918012 -1.25285023387811
116  -6.18304983545019 -1.36503194034323
117  -6.57692426973162 -1.54230076844819
118  -7.07291738379962 -1.55187626140238
119  -7.53461731887707 -1.35659618469053
120   -7.8807768960804 -1.00230070175756
121  -8.06729096581111 -0.55733307596135
122  -7.94775351340396  0.31543415335318
123  -7.33942365211021  0.95008950260121
124  -6.49274457317734  1.21937938201037
125  -5.59079066448998  1.20409905770083
126  -4.69054198898966  1.03873998092702
127  -3.78811940651318 0.828695308945135
128  -2.87226916045054  0.64203458603066
129  -1.94137364980086 0.507167116802289
130  -1.00235331976099 0.445560165981855
131  -0.00360100314021444  1.03852378398094
132  0.926358840845685  1.04930425092297
133   1.85411285526761  1.11131483186159
134   2.78109850634888  1.23985318873335
135   3.71486887229995  1.42189168892539
136    4.7328510715514   1.6262283548319
137   5.79973095349647  1.74836212835034
138   6.89036925528975   1.6435664589365
139   7.88719614774829   1.1527467573756
140    8.5107365237384 0.224186117223323
141    8.4495222280265 -0.891377103425206
142   8.03852467445155  -1.4932138566667
143   7.43018127096784 -1.89024865707433
144   6.72854103310427 -2.07478415686423
145   6.00484934454128 -2.09519005582342
146    5.2246851704402 -2.00776770262062
147   5.12662638636766 -1.98809496448539
148   5.02844716188785 -1.96653867951224
149   4.93027406257306 -1.94327048310734
150   4.83199459428836 -1.91843155581013
151   4.73340648345818 -1.89215381928937
152   4.63432609471208 -1.86458224587047
153    4.5346538881693 -1.83589050412515
154   4.43437724308469 -1.80627874509176
155   4.33353982658682 -1.77595905025327
156   4.23220873253685 -1.74513955305296
157   4.13045250859489  -1.7140130196544
158   4.02833054076753 -1.68275056867822
159   3.92588978660983 -1.65150010465467
160   3.82316527892262 -1.62038771079514
161   3.72018225521004 -1.58951998207059
162   3.61695845694579 -1.55898709554652
163   3.51350609869819 -1.52886599618698
164   3.40983355324285 -1.49922276333919
165   3.30594654420829 -1.47011482116806
166    3.2018489571803 -1.44159290617592
167   3.09754354479187 -1.41370215782405
168   2.99303237632412 -1.38648317474467
169   2.88831712428241 -1.35997299549613
170      2.78339939819 -1.33420538833863
171   2.67828093661043 -1.30921129929471
172   2.57296371636483 -1.28501936658276
173   2.46745014208734 -1.26165586945578
174   2.36174312342041 -1.23914495105176
175   2.25584609421634 -1.21750896882623
176   2.14976311166494 -1.19676833517234
177    2.0434988582237 -1.17694168712535
178   1.93705860399403 -1.15804619328067
179   1.83044824615785  -1.1400973684681
180   1.72367426784536 -1.12310924273356
181   1.61674367493044 -1.10709465403744
182   1.50966400481021 -1.09206505229021
183   1.40244326990676 -1.07803067292609
184   1.29508989222352 -1.06500081349447
185   1.18761270038065 -1.05298362333839
186   1.08002087387503 -1.04198627661789
187   0.97232388678016 -1.03201522647599
188  0.864531500917737  -1.0230759761568
189  0.756653717149806  -1.0151732478136
190  0.648700731174472 -1.00831121050917
191  0.540682924118899 -1.00249323150116
192  0.432610821958974 -0.997722039641936
193  0.324495062370885 -0.993999925672068
194  0.216346381313217 -0.991328474136544
195  0.108175579685236 -0.989708721170887
196  -6.50125872467746e-06 -0.989141326367612
197  -0.108188999583995 -0.989626286272339
198  -0.216361060283709 -0.991163086364669
199  -0.324511854254935 -0.993750843954719
200  -0.432630606616514 -0.997388004208764
201  -0.540706620263892 -1.00207248587617
202  -0.648729292308644 -1.00780179473761
203  -0.756688153327481 -1.01457270300505
204  -0.864572888538934 -1.02238138808914
205  -0.972373354678062 -1.03122351622075
206  -1.08007963213005 -1.04109390600027
207  -1.18768204509958 -1.05198665941644
208  -1.29517118131412 -1.06389521564773
209  -1.40253795799667 -1.07681199987084
210  -1.50977364114058 -1.09072854641734
211  -1.61686986846983 -1.10563552404513
212  -1.72381872730872 -1.12152237272799
213  -1.83061276934016 -1.13837742085908
214  -1.93724503206063 -1.15618788619696
215  -2.04370911989985 -1.17493950579358
216  -2.14999920263416 -1.19461665219729
217   -2.2561100208659  -1.2152023151921
218   -2.3620369503389 -1.23667773056957
219  -2.46777596092346 -1.25902249382393
220  -2.57332357936574 -1.28221452093369
221  -2.67867690750882 -1.30622965679302
222  -2.78383350910637 -1.33104176314323
223  -2.88879130167943 -1.35662259430074
224  -2.99354849127397 -1.38294132461746
225  -3.09810336233578 -1.40996445415347
226   -3.2024540456343 -1.43765548569969
227  -3.30659833687631 -1.46597404658523
228  -3.41053326266189  -1.4948754614255
229  -3.51425464909554 -1.52430960014865
230  -3.61775648148947 -1.55421954850719
231  -3.72103009008046 -1.58453965328414
232  -3.82406272163163 -1.61519409905045
233   -3.9268363463573 -1.64609287856949
234  -4.02932499214593 -1.67713094104177
235  -4.13149332488811 -1.70818220257972
236  -4.23329324108115 -1.73910142143558
237  -4.33466543347627 -1.76971595167724
238  -4.43553926776844 -1.79983839697747
239   -4.5358484011761 -1.82925601196085
240  -4.63554565013243  -1.8577657690993
241  -4.73464509488099 -1.88515823298409
242  -4.83324121428994 -1.91127327222521
243  -4.93152031112471 -1.93595208611775
244  -5.02968057259147 -1.95907878747021
245   -5.1278379103971 -1.98050017377087
246  -5.22586191995422 -2.00005542176275
247  -6.00586580789969 -2.08711437191033
248  -6.72918094113005 -2.06765383331898
249  -7.43109829762611 -1.88571502546985
250  -8.04165299483744 -1.49271561561492
251   -8.4579976232987 -0.894960949856197
252   -8.5330217042169 0.219429474824078
253  -7.92235466042884  1.15606828778732
254  -6.93128877153077   1.6584461438055
255  -5.84109305909072  1.77196287003745
256  -4.77264813312868  1.65363883276163
257    -3.750311006616  1.44786941989212
258  -2.81204650105362  1.26127920070059
259  -1.88000158260424  1.12634996017467
260  -0.942436002012761   1.0567206423302
