// Id               X                Y
  1  -0.148269490856543  3.18074976155256
  2  0.873264721075171  3.13693585998026
  3   1.87178078603274  2.96605435745508
  4   2.90609568067376  2.69344009463693
  5   3.93274995024952  2.48893279958178
  6   4.90654495181495  2.33445649884848
  7   5.85629368602472  2.20197190525408
  8   6.79286780401734  2.06465797819765
  9   7.70640555121188  1.87316595882259
 10   8.56902361875617  1.56092246342298
 11   9.34182437973826  1.07176899772744
 12    9.6728307645715  0.67848027531492
 13   9.86977156810848 0.187431403753774
 14   9.81982434851008 -0.362266661183988
 15   9.46915964700571 -0.751989484076139
 16   8.75511567736862 -0.760122913083355
 17   8.26270007703965 -0.617347512429649
 18   8.13795341477064 -0.575278563541345
 19   8.05196844283267 -0.545039052965121
 20   7.98204463393146 -0.519717424251267
 21   7.91773181345748 -0.495837884658329
 22   7.85215135987111 -0.470881001785331
 23   7.78159024555166 -0.44330579496575
 24   7.70386307088792 -0.41200481580439
 25   7.61756588347656 -0.376033531622747
 26   7.52189753780556 -0.334545747627408
 27   7.41668659636005 -0.286829956186238
 28   7.30239277526252 -0.232373059459477
 29   7.17997379298464 -0.170900679549878
 30   7.05064410860133 -0.102375900934798
 31   6.91562918954159 -0.0269683762996829
 32    6.7759957239468 0.0549865305036859
 33   6.63257259096587 0.143028043929412
 34   6.48593718791215 0.236607786581571
 35   6.33643722825596 0.335124685692644
 36   6.18422832302552 0.437954916576939
 37   6.02931693900903 0.544474287908723
 38   5.87160319048603 0.654071832797948
 39   5.71092000892262 0.766155409599209
 40   5.54706635511746 0.880151613915148
 41   5.37983311932621 0.995502769218258
 42   5.20902136911104  1.11166333253636
 43   5.03445356025557  1.22809714737715
 44   4.85597906556221  1.34427603853541
 45    4.6734757712529  1.45967957315317
 46   4.48684949943638  1.57379551594945
 47   4.29603270442726  1.68612052518661
 48   4.10098340565514  1.79616082289701
 49   3.90168482147972  1.90343278351516
 50   3.69814577199825  2.00746352802379
 51   3.49040167337189  2.10779166483151
 52   3.27851583955738  2.20396830054132
 53   3.06258080167443  2.29555839319414
 54   2.84271940365082  2.38214246032995
 55   2.61908550346561  2.46331860971074
 56   2.39186417646247  2.53870482666923
 57   2.16127137451369  2.60794144091642
 58    1.9275530340201  2.67069368693197
 59   1.69098365366133  2.72665428033255
 60   1.45186437671881  2.77554593222573
 61    1.2105206226108  2.81712373730737
 62  0.967299314983855  2.85117737043653
 63  0.722565757815952    2.877533041043
 64   0.47670021208938  2.89605515234545
 65  0.230094229545879  2.90664762854753
 66  -0.0168531978637521  2.90925487147647
 67  -0.263739610551112  2.90386232691942
 68  -0.510163111801357  2.89049664088197
 69  -0.755726390720126  2.86922540664798
 70  -1.00004067220775  2.84015650436174
 71  -1.24272953027642  2.80343705524605
 72  -1.48343250293307    2.759252012742
 73  -1.72180845059986  2.70782243094114
 74  -1.95753860207419  2.64940344945484
 75  -2.19032923576481  2.58428204911315
 76  -2.41991394490967  2.51277463132615
 77  -2.64605543933873  2.43522448757106
 78  -2.86854683934047  2.35199922545385
 79  -3.08721242741578  2.26348823036517
 80  -3.30190783913148  2.17010024189126
 81  -3.51251970413433  2.07226113028948
 82  -3.71896479086909  1.97041194845012
 83  -3.92118876923161  1.86500731956577
 84  -4.11916477621065  1.75651418334936
 85  -4.31289204181633  1.64541087410228
 86  -4.50239487905808   1.5321864413791
 87   -4.6877223272431  1.41734007440522
 88  -4.86894861436172  1.30138048199139
 89  -5.04617433451113  1.18482514942842
 90   -5.2195278148818  1.06819955647126
 91  -5.38916563261481  0.95203666444654
 92  -5.55527076196747 0.836877162385729
 93  -5.71804655320799 0.723270948402364
 94  -5.87770480738115 0.611779969806885
 95  -6.03444666956874 0.502981812217792
 96  -6.18843586131575 0.397472447857272
 97  -6.33976477113662 0.295865653126525
 98  -6.48841495620954 0.198786239490473
 99  -6.63421457965965 0.106854825998396
100  -6.77679637847535 0.0206635208641579
101  -6.91556175049187 -0.0592559563851281
102  -7.04966128729563 -0.132468732893116
103  -7.17801122733175 -0.198675279054667
104  -7.29937532034713 -0.257750860614703
105  -7.41253674323717 -0.309783220182242
106  -7.51654419759456 -0.35509742467373
107  -7.61095061807003 -0.394250263227254
108  -7.69594391092123 -0.427980588406948
109  -7.77234227117418 -0.457154706558474
110  -7.84159464077956 -0.482703350555956
111  -7.90592856791275 -0.505747079759985
112  -7.96904232026081 -0.527693659721628
113  -8.03768885371031 -0.550900324494226
114  -8.12228026269082 -0.578516947458663
115  -8.24593351183876 -0.616942866739526
116   -8.7403352730985 -0.745270392606127
117  -9.45290778401439 -0.713241191930135
118  -9.78988926372249 -0.311735066613173
119  -9.82240334267767 0.238960551141999
120  -9.61284666423102 0.723974072116782
121  -9.27422676071641   1.1095399912409
122  -8.49552914607051  1.58643497620691
123  -7.63246196041182  1.88982649895735
124  -6.72365724340249  2.07438857962466
125  -5.79796655048112  2.20481652841349
126  -4.86865373093846  2.32711566918737
127  -3.94560503292826   2.4671054913523
128  -3.04020484353227  2.65119280162909
129  -2.14893920228361  2.88141310627215
130  -1.11854294606094  3.03076721467466
131  0.280522879667164  3.57152214154941
132   1.31733693803845   3.5207124140677
133   2.26079777933318  3.40377046485574
134    3.1759842346284  3.25003397582772
135   4.09787866514632  3.08946760453132
136   5.03470974274774  2.94346172167518
137   5.98734299950678  2.80910985233863
138   7.00141937142247  2.64940890146892
139   8.03067084894962  2.40384851715026
140   9.02286959800605  1.97805909199556
141   9.85305663474323   1.2761191950433
142   10.2012225545406  0.67278909811262
143   10.3500540274255 -0.00244559615927546
144   10.2813566274336 -0.676324930352966
145   10.0168896475131 -1.29005108861206
146    9.5662669583577 -1.82960420943107
147   9.40203773079101 -1.95825758546364
148   9.17685854154154 -2.09759130816768
149   8.93494437996306 -2.20933403950671
150   8.68136944299583 -2.29188869230883
151   8.42093409442913 -2.34521033594243
152   8.15840025773353 -2.37044562831092
153   7.89770052973678 -2.36980060546902
154   7.64187674673125 -2.34613675332278
155   7.39313344687755 -2.30263912000459
156   7.15289606232324 -2.24254940707183
157   6.92187755104919  -2.1689450993441
158    6.7001744559178 -2.08457241602813
159   6.48740410979279 -1.99175310518082
160   6.28286836990672 -1.89237225166527
161   6.08570922618515  -1.7879283714129
162    5.8950268649721  -1.6796123222467
163   5.70995209253316 -1.56838668700158
164   5.52968187850079 -1.45505135620442
165   5.35349140419491 -1.34029204572574
166   5.18073316250082 -1.22471346770193
167   5.01082954137883 -1.10886021495681
168    4.8432625477572 -0.99322853965025
169   4.67756291681838 -0.878272087463358
170   4.51330016337522 -0.764404375363465
171   4.35007464560406 -0.652000335471386
172   4.18751227422832 -0.541398492528268
173   4.02526194877894 -0.432904590431047
174   3.86299543322258 -0.326796564568661
175   3.70040886597309 -0.223330467683871
176   3.53722524922818 -0.12274628228477
177   3.37319685918243 -0.0252733485483873
178   3.20810747054208 0.068865782190351
179    3.0417734630001  0.15945216053559
180   2.87404468527713 0.246269450531432
181   2.70480391946801 0.329102663887223
182    2.5339667717451 0.407739496480865
183   2.36148004417902 0.481969842226153
184   2.18732131689621 0.551588749862935
185   2.01149672566104 0.616395783593542
186   1.83404055046859 0.676199220421038
187    1.6550126095008 0.730814748070845
188   1.47449780225794 0.780070727041656
189   1.29260316861042 0.823806003445031
190   1.10945716147454 0.861876050245217
191   0.92520641169148 0.894149819274112
192  0.740014507798914 0.920516473309143
193  0.554058571272504 0.940881282517256
194  0.367527418356859 0.955172576674212
195  0.180618113421111 0.963336755547657
196  -0.00646649004052981 0.965345074336209
197  -0.193521020501155 0.961187901993365
198  -0.380340564549384 0.950880996933653
199  -0.566723573663583 0.934459213995062
200  -0.752475179211802   0.9119820067613
201  -0.937409588646783 0.883526848445388
202  -1.12135352372496 0.849193789380822
203  -1.30414803231322 0.809098908227174
204  -1.48565183787538 0.763377844290958
205  -1.66574259087817 0.712179613581044
206  -1.84431996488499 0.655669117642669
207  -2.02130647969178 0.594021624097349
208  -2.19665026033299 0.527424324687511
209  -2.37032564409325 0.456071693338199
210  -2.54233559184281 0.380166242453241
211  -2.71271227445685 0.299914886798833
212  -2.88151910967026 0.215529183701871
213  -3.04885133086241 0.127222865325626
214  -3.21483743301186 0.0352121293957025
215  -3.37963934614232 -0.0602852357762818
216  -3.54345275723276 -0.159048528361525
217  -3.70650617563198 -0.260852639448505
218  -3.86905956173768 -0.365464563346966
219   -4.0314019260497 -0.47263900061861
220  -4.19384866601141 -0.582112531818375
221  -4.35673891797027 -0.693597383486986
222  -4.52043390506736 -0.806775258369086
223  -4.68531698639092 -0.921292213618114
224  -4.85179612857306 -1.03675500028145
225  -5.02030904196074 -1.15272884920329
226  -5.19133081112186 -1.26873580456774
227  -5.36538333005721 -1.38425194064627
228  -5.54304542490302  -1.4987011090957
229  -5.72496208705236 -1.61144246188093
230  -5.91185056184938 -1.72174880618833
231  -6.10449963189853 -1.82877281198142
232  -6.30375565400459 -1.93149831568511
233  -6.51048478237689 -2.02867543029159
234  -6.72549796325144 -2.11874326667345
235  -6.94942996385043 -2.19975504883472
236  -7.18258078187778 -2.26933414636268
237  -7.42474953742955 -2.32469408508246
238  -7.67509650924569 -2.36274040450508
239  -7.93204818302358 -2.38024647322369
240  -8.19323323012109 -2.37408375093468
241  -8.45544115675601 -2.34149857086001
242  -8.71461473797345 -2.28044301216267
243  -8.96592693870335 -2.18996520823551
244  -9.20454161357135 -2.07032180308736
245  -9.42536311382578 -1.92337635394083
246  -9.58621397588484 -1.78831000496531
247  -10.0179242451407 -1.23308161471352
248  -10.2612583129308 -0.610794719395733
249   -10.308530447858 0.0647920288395325
250  -10.1408654440851 0.735313935566612
251  -9.77882721809919   1.3297863461074
252  -8.93721525960282  2.01619531889707
253  -7.94143232050618  2.42945928969496
254  -6.91191564687144  2.66588079071113
255  -5.89720690038755  2.81811807358065
256  -4.93385739764935  2.94622892275811
257  -3.95949582877813  3.08849907508442
258  -2.92103902155796  3.25606926489867
259  -1.85961296513007   3.4160697050663
260  -0.788885507396838  3.53003569305278
