// Id               X                Y
  1  -0.0458789900505284  1.26924059736666
  2   0.91835919202182  1.28149959457952
  3   1.89517424665091  1.31489262048244
  4   2.85714405266676  1.40851439147844
  5    3.7740663725342  1.69746149417937
  6   4.60194201351454  2.18839216671148
  7   5.34731433229074  2.78498336817394
  8    6.1099807203524  3.33343005994082
  9    6.9999819791407  3.60429972586092
 10   7.85090304394557   3.2493168640975
 11    8.0054153968343  2.34784456119417
 12   7.73327730767371  1.90208937402841
 13   7.29823714830696  1.60383726488794
 14   6.77951991436258  1.44782068533375
 15   6.20066029793967  1.39373163602974
 16   5.52095354819818  1.39070480034632
 17   5.42474766962154  1.38541703035268
 18    5.3277541537154  1.37889150383144
 19   5.22992190624385  1.37120380818485
 20   5.13118952753461  1.36236914533031
 21   5.03149790901939  1.35251221744999
 22   4.93082839981402  1.34168183693992
 23   4.82918551184801  1.33001874677576
 24   4.72660278897766  1.31761047328801
 25   4.62312156220089  1.30459524100699
 26   4.51879294984557  1.29108144361414
 27    4.4136669893933  1.27719556042226
 28    4.3077940958286  1.26304701241723
 29   4.20122115950462  1.24874587323912
 30   4.09399252712926  1.23439005855092
 31   3.98614907396209  1.22007094478088
 32   3.87772884378865  1.20586947064568
 33   3.76876707114235  1.19185794741322
 34   3.65929660128214  1.17809930172714
 35   3.54934810437991  1.16464795280663
 36   3.43895035035456  1.15155008768789
 37    3.3281303997253  1.13884437597144
 38   3.21691378065076  1.12656255432992
 39   3.10532462548444  1.11473011045019
 40   2.99338578703946  1.10336692360189
 41   2.88111893378323  1.09248790439658
 42   2.76854463184982  1.08210359707985
 43   2.65568241636938  1.07222074989069
 44   2.54255085566043  1.06284284418135
 45   2.42916761027251  1.05397058300509
 46   2.31554948850372  1.04560233785523
 47   2.20171249935548  1.03773455490047
 48   2.08767190358756  1.03036212212597
 49   1.97344226324043  1.02347869958274
 50   1.85903748981194  1.01707701510696
 51   1.74447089115312  1.01114912806898
 52   1.62975521708242  1.00568666371927
 53   1.51490270368431   1.0006810206607
 54   1.39992511624725 0.996123553869921
 55   1.28483379080167 0.992005735552817
 56   1.16963967423498 0.988319295955558
 57   1.05435336298312 0.985056346078259
 58  0.938985140320698 0.982209484056688
 59  0.823545012295733 0.979771886796274
 60  0.708042742377442 0.977737388264351
 61  0.592487884907242 0.976100545673287
 62  0.476889817460977 0.974856694620459
 63  0.361257772245714 0.974001994091027
 64  0.245600866667679 0.973533462076148
 65  0.129928133218797 0.973449002412221
 66  0.0142485488371442 0.973747423304936
 67  -0.101428936098233 0.974428447864476
 68  -0.217095368974368 0.975492716843959
 69  -0.33274176618811 0.976941783640789
 70  -0.448359084262535 0.978778101488814
 71  -0.563938190675863  0.98100500263663
 72  -0.679469834248378 0.983626669172727
 73  -0.794944614940506 0.986648095020282
 74  -0.910352952925578 0.990075038481849
 75  -1.02568505681439 0.993913964566248
 76  -1.14093089092462 0.998171976175535
 77  -1.25608014150624  1.00285673306851
 78  -1.37112218185532   1.0079763573489
 79  -1.48604603627263  1.01353932405098
 80  -1.60084034285002  1.01955433521484
 81  -1.71549331509381  1.02603017565916
 82  -1.82999270242049  1.03297554847481
 83   -1.9443257495856  1.04039888808333
 84  -2.05847915512521  1.04830814853706
 85  -2.17243902889752  1.05671056459205
 86  -2.28619084880202  1.06561238297609
 87  -2.39971941672096  1.07501856121752
 88  -2.51300881365884  1.08493243142303
 89  -2.62604235393305   1.0953553265237
 90  -2.73880253807051  1.10628616678567
 91   -2.8512710037821  1.11772100486029
 92   -2.9634284740069  1.12965252838968
 93  -3.07525470047215  1.14206952025908
 94  -3.18672840046979  1.15495627809828
 95   -3.2978271837463  1.16829199670004
 96   -3.4085274655079  1.18205011978429
 97  -3.51880436030773  1.19619767111807
 98  -3.62863155057664  1.21069457959384
 99  -3.73798112363311  1.22549301878034
100  -3.84682337148108  1.24053678867524
101   -3.9551265494907  1.25576077610561
102  -4.06285659760496  1.27109054078041
103  -4.16997684113809  1.28644208634301
104  -4.27644770781262  1.30172188821527
105  -4.38222653638182  1.31682726402915
106  -4.48726761622104  1.33164718310879
107  -4.59152268098315  1.34606361791564
108  -4.69494220584669  1.35995352963028
109   -4.7974780197466  1.37319155721764
110  -4.89908785947579  1.38565339684877
111  -4.99974241944059  1.39721974209331
112  -5.09943476046223  1.40778041593959
113  -5.19818959047803  1.41723806910085
114  -5.29606441394245  1.42551056907902
115  -5.39312669404557  1.43253180560958
116  -5.48941918893895  1.43825450239706
117   -6.1693577661422   1.4420991597474
118  -6.75324423846415  1.49207391881058
119  -7.27465680165747  1.63946817699829
120  -7.71750126419648  1.92539935699504
121  -8.00658098650686  2.35906495238864
122   -7.9019700142211  3.26754547394086
123  -7.07235081204059  3.66655507375869
124  -6.17447136300568  3.42721769646121
125  -5.40466894665164  2.89207244879698
126  -4.66253315995032  2.29590322668579
127  -3.84605815136098  1.79137492292745
128  -2.94075248822442  1.47332786242545
129  -1.98618444977611  1.33946699792771
130   -1.0144704865042  1.25849157677791
131  -0.0424935137991328  1.87400347067857
132  0.895533527506736  1.88863174123939
133   1.83269993728433  1.91853863243718
134   2.76603020510471  2.01095859582771
135   3.66025604844933  2.29863500340782
136   4.47198888724293  2.78900476598279
137   5.29728328788412  3.39969516320379
138   6.21832547143418  3.93856942920071
139    7.2801810284916   4.1222370989544
140   8.25396912404685  3.67333353905514
141   8.53350123594136   2.6353053843808
142   8.37766400252644  1.96334498595171
143    7.9395608796601  1.43432900075875
144    7.3498905245455  1.09807455493704
145   6.70994464191688 0.923582179044099
146   7.17040254217252 0.420067537936659
147     7.064027073731 0.191359362055804
148   6.93100040152738 0.00646234360995957
149   6.78319882417333 -0.14678667284195
150   6.62657087149336 -0.275468830518144
151   6.46496154299588 -0.384575507232341
152   6.30094147880409 -0.477919882751105
153   6.13621040854662 -0.558510872283755
154   5.97186160836973 -0.628745457547398
155   5.80857055475578 -0.69053496250708
156   5.64672975076478 -0.745401234727148
157   5.48654357209459 -0.794553906538872
158   5.32809376509002 -0.838953170555515
159   5.17138407103156 -0.87936061366954
160   5.01637026372393 -0.916380187104218
161   4.86298016885254 -0.950491086025157
162   4.71112684522233 -0.982074063953457
163   4.56071713801938 -1.01143244038584
164   4.41165710520923 -1.03880883348311
165   4.26385534169853 -1.06439844970624
166   4.11722489771671 -1.08835960067759
167   3.97168426538642  -1.1108219887538
168   3.82715775559147 -1.13189320037488
169   3.68357548549305 -1.15166376353473
170   3.54087312668869 -1.17021105950678
171    3.3989915156235 -1.18760232517449
172   3.25787619467568 -1.20389693785455
173   3.11747692928898 -1.21914813769586
174   2.97774723039267 -1.23340431252686
175   2.83864390017604 -1.24670994510962
176   2.70012661158108 -1.25910630209565
177   2.56215752662041 -1.27063192711675
178   2.42470095509448 -1.28132298690614
179   2.28772305297126 -1.29121350839732
180   2.15119155827066 -1.30033553591174
181   2.01507556149659 -1.30871923060672
182   1.87934530726603 -1.31639292897066
183   1.74397202366672 -1.32338317290871
184   1.60892777595547 -1.32971472064637
185   1.47418534140716 -1.33541054518461
186   1.33971810237619 -1.34049182517512
187   1.20549995490789 -1.34497793165045
188    1.0715052305283 -1.34888641296031
189  0.937708629123339 -1.35223297949713
190  0.804085161076849 -1.35503148925316
191  0.670610097066199 -1.35729393484854
192  0.537258924122902 -1.35903043237901
193   0.40400730674777 -1.36024921225534
194  0.270831052019787 -1.36095661210638
195   0.13770607775723  -1.3611570717508
196  0.00460838288643721 -1.36085313020151
197  -0.128485980752242 -1.36004542466563
198  -0.261600935885903 -1.35873269152802
199  -0.394760407283416  -1.3569117693281
200  -0.527988349929348 -1.35457760375399
201  -0.661308778626077 -1.35172325470115
202  -0.794745799801561 -1.34833990546931
203  -0.928323646377069 -1.34441687417237
204  -1.06206671664862  -1.3399416273986
205  -1.19599961825779 -1.33489979609635
206  -1.33014721848013 -1.32927519356698
207  -1.46453470224411 -1.32304983527693
208  -1.59918763950425 -1.31620395991925
209  -1.73413206382333 -1.30871605076467
210  -1.86939456427903 -1.30056285581496
211   -2.0050023930943 -1.29171940451914
212  -2.14098359168104 -1.28215901774716
213  -2.27736713806183 -1.27185330630451
214  -2.41418311888358 -1.26077215142854
215  -2.55146292943046 -1.24888365823465
216   -2.6892395051147 -1.23615406978658
217  -2.82754758779404 -1.22254762524088
218  -2.96642402985391 -1.20802634014134
219  -3.10590813816914 -1.19254967999499
220  -3.24604205860476 -1.17607408940455
221  -3.38687119936272  -1.1585523280434
222  -3.52844468789777 -1.13993255114029
223  -3.67081585080562 -1.12015705515898
224  -3.81404269831275 -1.09916058853932
225  -3.95818838374748 -1.07686810225627
226  -4.10332159217728 -1.05319178450584
227  -4.24951678928732 -1.02802718677982
228  -4.39685422837747 -1.00124820391927
229  -4.54541956493831 -0.972700616837525
230  -4.69530285810638 -0.942193840357498
231  -4.84659663640484 -0.90949043620524
232  -4.99939255389118 -0.874292849179913
233  -5.15377593939156 -0.836226697030709
234  -5.30981721530607 -0.794819783477214
235  -5.46755868091768 -0.749475807796958
236  -5.62699445354921 -0.699441517011809
237   -5.7880403727327 -0.643765792809395
238  -5.95048931144697 -0.581248911613051
239  -6.11394556451905 -0.51037996345209
240  -6.27772989090812 -0.42925994250374
241  -6.44074450336705 -0.335506329660989
242  -6.60128441383367 -0.226128286950106
243  -6.75677343895126 -0.0973373145768544
244  -6.90336352124858 0.0558219403683557
245  -7.03511543985742 0.240383253428022
246  -7.14019720301263 0.468538560071851
247  -6.67585505466246 0.969079688333058
248  -7.31699309059004  1.13138247501926
249  -7.91278053291778  1.45418417929266
250  -8.36617137643213  1.96947035813714
251   -8.5520719534294  2.63378902495484
252  -8.31459926097551  3.68230832105852
253  -7.36397785393155  4.17751582431925
254  -6.29665135535275  4.02929898333039
255   -5.3643619917269   3.5075032367589
256  -4.53164578058597  2.89642986126002
257    -3.726446261741  2.39172221449006
258  -2.84134929471591  2.07469847067344
259  -1.91265459283535  1.94146740397736
260  -0.978031627568243   1.8632015792315
