// Id               X                Y
  1  -0.117736141702759  3.58102031541428
  2  0.909183339126744  3.55948859596369
  3   1.94449861691378   3.4719279324571
  4   2.98774253762299  3.30222425460046
  5   4.02311012959472  3.03181177679086
  6   5.01994559300547  2.65100888152524
  7   5.94798234473283  2.31427582345864
  8   6.89077894394483  2.14407110407885
  9   7.85143906580894  2.13479179020606
 10   8.80003629459874   2.1644379604316
 11   9.71759426514326  2.01506219431355
 12   10.1507383702053  1.73450743071588
 13   10.4296201325737  1.30020890176844
 14   10.4468945714926  0.78592838729758
 15   10.1769803011503 0.353956257720608
 16   9.72826489129113 0.134187956795539
 17   9.48211334630816 0.0904450850569399
 18   9.41316660543589 0.0849563662143003
 19   9.34698812371049 0.0823082564116808
 20   9.27063005524609 0.0823872965412072
 21   9.18338376951284 0.0864198967117464
 22   9.08640251505948 0.0956898409106838
 23   8.98098474295966 0.111266434336933
 24   8.86830505598261 0.134009035491385
 25   8.74926811991489 0.164589285889313
 26   8.62415157806254 0.203657208039744
 27   8.48408468207654 0.255378306141687
 28   8.33648237465181 0.318402123593854
 29   8.18569136852088 0.391093786194883
 30   8.03234492542458 0.472796181539868
 31   7.87655250348318  0.56287882187067
 32   7.71817872779996 0.660678373865431
 33   7.55693948887787 0.765481389719961
 34   7.39245294115555 0.876516495543817
 35   7.22427596019791 0.992950805860913
 36   7.05193548410273  1.11388990942623
 37    6.8749578178957  1.23838178773461
 38    6.6928965259909  1.36542509391465
 39    6.5053584187108  1.49398192792815
 40   6.31202662033889   1.6229948035359
 41   6.11267954515131  1.75140703629875
 42   5.90720470062536  1.87818538229294
 43   5.69560651455263  2.00234348799788
 44   5.47800778200169  2.12296460372239
 45   5.25464478794546  2.23922206628207
 46   5.02585662506441  2.35039625062188
 47   4.79206964278345  2.45588699318257
 48   4.55377828891377  2.55522086629684
 49   4.31152380464931  2.64805309460759
 50   4.06587228654217  2.73416431093232
 51   3.81739353416399  2.81345270927959
 52   3.56664187972815  2.88592243075249
 53   3.31413988482842  2.95166918919799
 54   3.06036543888383  3.01086419955735
 55   2.80574245292901  3.06373742231955
 56   2.55063505047664  3.11056100564844
 57   2.29534493848588  3.15163362355278
 58   2.04011150400446  3.18726620536867
 59   1.78511412045489  3.21776935540619
 60   1.53047614782261  3.24344259061285
 61   1.27627015546401  3.26456538889763
 62    1.0225239673316  3.28138994454646
 63  0.769227212150849  3.29413546799662
 64  0.516338144161093  3.30298384014765
 65  0.263790575823865  3.30807643012101
 66  0.0115008279039617   3.3095119036641
 67  -0.240625347647396  3.30734488162035
 68  -0.492685881249685  3.30158534941065
 69  -0.744775524263716  3.29219876556455
 70  -0.99697899488326  3.27910686697283
 71  -1.24936412163539  3.26218921802816
 72  -1.50197499703736   3.2412855974711
 73  -1.75482519058934  3.21619935744696
 74  -2.00789112107844  3.18670192016303
 75  -2.26110575206162  3.15253859385881
 76  -2.51435284872506  3.11343588592733
 77  -2.76746211402209  3.06911046079899
 78  -3.02020559887743  3.01927982775789
 79  -3.27229584358639  2.96367474494934
 80  -3.52338624037145  2.90205318960207
 81  -3.77307409353644  2.83421557549549
 82  -4.02090677774168  2.76002070869039
 83  -4.26639124534885  2.67940178117262
 84  -4.50900690869702   2.5923815358569
 85  -4.74822163415127  2.49908562534818
 86  -4.98351025855208  2.39975315887256
 87  -5.21437471513378  2.29474350620403
 88  -5.44036458173465  2.18453860956251
 89  -5.66109668342254  2.06974033337129
 90  -5.87627232688761  1.95106273197611
 91  -6.08569082917318   1.8293195020551
 92   -6.2892582226915  1.70540727099594
 93  -6.48699034901174  1.58028571695212
 94   -6.6790099601209  1.45495578453083
 95  -6.86553788356445   1.3304374187226
 96  -7.04687872614824  1.20774826117937
 97  -7.22340193307565  1.08788462275374
 98    -7.395519224451 0.971805772303429
 99  -7.56365943298103 0.860422201515705
100   -7.7282414819162 0.754588106223258
101  -7.88964551728558 0.655097961615172
102  -8.04818064467335 0.562686902336063
103    -8.204044071801 0.478034946917255
104  -8.35725620131495 0.401776928558663
105  -8.50751832565189 0.334528306854681
106  -8.65369279380809 0.277002109456591
107  -8.78344271699167 0.233015082793383
108  -8.90519392463818 0.198177605503016
109  -9.02028792530286 0.171283529920551
110  -9.12814322012434 0.151655042836231
111  -9.22772108478862 0.138519493436677
112  -9.31778153250005 0.130917889200779
113  -9.39716775532594  0.12770287310412
114  -9.46656460859767 0.127650544919841
115  -9.53910628541514 0.130425492205772
116  -9.78876436290363 0.163124387154412
117  -10.2500033621669  0.35681763726088
118  -10.5497011863505 0.767471288296539
119  -10.5713855944284   1.2795617460201
120  -10.3237864797148  1.72919767171661
121   -9.9074572926573   2.0294448350553
122  -8.99611311467115    2.196756838505
123  -8.05351988287296  2.15921195477431
124  -7.09866211576054  2.14265603845758
125   -6.1529479123099  2.28021374116684
126  -5.21184802121547  2.59473286571173
127  -4.22902089576377  2.97706510940082
128  -3.22013822515908  3.25910592617433
129  -2.18596081483891  3.44297488361922
130  -1.16629010196444  3.51097168917368
131  -0.0874399191144695  4.16776231636512
132  0.966193120824001  4.14419832177701
133   2.01479291588435  4.05471157580026
134   3.05221638457946  3.88554089111754
135   4.06972390748475  3.61734287771623
136   5.05668467718963  3.24198983754056
137   6.05692586513163  2.90521256640828
138   7.09249144403679  2.71965132264316
139   8.15052745933693  2.67308424396965
140   9.22629821779486  2.61155298040107
141   10.2681303562683  2.27965785261754
142   10.7377649971636  1.75718858118231
143   10.9476743584433  1.08578246440508
144   10.8375445909467  0.39186299355409
145   10.5542940913921 -0.24664051397906
146   10.7508037968624 -0.943679564234254
147   10.6629086493472 -1.20317417928706
148    10.437542075342 -1.37864509684252
149   10.1812947708389 -1.50397265963415
150   9.91224881431762 -1.59210014437762
151   9.63742344696433  -1.6485058602941
152   9.36095676140598 -1.67653954927586
153   9.08585316735249 -1.67901330919382
154   8.81445841402128 -1.65849587586277
155   8.54875552437817 -1.61739754937127
156   8.29086100787958 -1.55793674861595
157   8.05215562220755 -1.48477689978701
158   7.82567015435717 -1.40043268577884
159   7.60672513948577 -1.30611048405097
160     7.394387855311 -1.20323326396279
161    7.1880293291452 -1.09312941959326
162   6.98703736582666 -0.977070803715253
163   6.79075047174529 -0.856276124354937
164   6.59844779967244 -0.731909438108878
165   6.40935929592195 -0.605079003212154
166   6.22268478714998 -0.476836954916229
167   6.03761724988291 -0.348179362570898
168    5.8533675525022 -0.220046031543351
169   5.66918867492131 -0.0933194336618096
170   5.48439772209376 0.0311776905181594
171   5.29839428995035 0.152686247115753
172     5.110674048506 0.270516080532218
173   4.92083681290476 0.384052165863325
174   4.72858885815172 0.492760956613467
175   4.53373974232982  0.59619599276044
176    4.3361943679237 0.694001877651911
177   4.13594136831193 0.785915887902009
178   3.93303911282985 0.871766755440926
179    3.7276006629939 0.951470498754545
180   3.51977889751076  1.02502351585491
181   3.30975279158445  1.09249342640307
182   3.09771553790597  1.15400832611498
183   2.88386488577973  1.20974518022817
184   2.66839579562624  1.25991804548912
185   2.45149528758025  1.30476669937647
186   2.23333921679121  1.34454610511845
187   2.01409063142006  1.37951698307828
188   1.79389934979381  1.40993761678377
189   1.57290241426246  1.43605690879192
190   1.35122512482335  1.45810862222621
191   1.12898241223029  1.47630669624691
192  0.906280368608078  1.49084150231034
193  0.683217807703133  1.50187690596794
194  0.459887773832726   1.5095480096051
195  0.236378957286716  1.51395946956029
196  0.0127770044185166  1.51518430261371
197  -0.210834266549399  1.51326311942589
198  -0.434371717276511  1.50820374485315
199  -0.657751772763106   1.4999812067606
200  -0.880889297823216   1.4885380961441
201  -1.10369643121197  1.47378532247865
202  -1.32608135167659  1.45560330961644
203  -1.54794696643768  1.43384369933667
204  -1.76918953592414  1.40833165124753
205  -1.98969727949635  1.37886884768387
206  -2.20934904572599   1.3452373278452
207  -2.42801317727173  1.30720428259725
208  -2.64554675297689  1.26452793467798
209  -2.86179544494752  1.21696460213352
210  -3.07659427958681  1.16427698937242
211  -3.28976962892335   1.1062436657866
212  -3.50114276875726  1.04266957614787
213  -3.71053530776514 0.973397286460049
214  -3.91777670215297 0.898318518945395
215  -4.12271391430012  0.81738539470314
216  -4.32522305193692 0.730620712888551
217  -4.52522255209807 0.638126581714831
218  -4.72268718272946 0.540090801290323
219  -4.91766186885651 0.436790586002914
220  -5.11027415980797 0.328593486572814
221   -5.3007440844415 0.215955688073859
222  -5.48939022213404 0.0994181638782799
223  -5.67663105382832 -0.020398602314469
224  -5.86298102753374 -0.14280050040707
225   -6.0490412297416 -0.267025485241671
226  -6.23548503663987 -0.392248437867542
227  -6.42303956535781 -0.517584817895731
228  -6.61246411330533 -0.642093028895501
229  -6.80452706091982 -0.764775700770218
230  -6.99998298630214 -0.884580302449381
231  -7.19955219415634 -1.00039959234605
232  -7.40390600582778 -1.11107233524862
233  -7.61366452201297 -1.21538421604826
234  -7.82942486158156 -1.31206637551496
235  -8.05188484920769 -1.39977402375508
236  -8.28243104959189 -1.47695076598535
237  -8.53422252993448 -1.54279191160627
238  -8.79649379901889 -1.59187416665023
239  -9.06563600129641  -1.6215344184276
240  -9.33957295649257 -1.62924557485087
241   -9.6160726528699 -1.61231344048041
242  -9.89232925565704 -1.56777992629619
243  -10.1644807729064 -1.49210634912212
244  -10.4259439636711 -1.37951049471723
245  -10.6594223144151 -1.21607736197137
246  -10.7608574894148 -0.963231560401131
247  -10.6008403136871 -0.258100294361002
248  -10.9234807740486 0.361163551820905
249  -11.0758694421768  1.04691988750556
250  -10.9023454588926  1.72883824472205
251  -10.4583553964396   2.2735512165869
252  -9.42780575968419  2.63849337467791
253  -8.35182213106737  2.69831449133764
254  -7.29404642057237  2.72109993073158
255  -6.25539988884631  2.87590356213813
256  -5.24994372260008   3.1931437739233
257   -4.2583054618917  3.56533251995399
258  -3.23686066075926  3.84820788205313
259  -2.19521148636163  4.03174556712291
260  -1.14146949273882  4.10027706489335
