// Id               X                Y
  1  -0.450235282165771  3.65431666415858
  2  0.637431618698822  3.63154773724382
  3   1.70494156238447  3.42689486092303
  4   2.71358245269066  3.04916590977639
  5   3.65228796060527  2.54444354458337
  6   4.57470729389045    2.024448553769
  7   5.47742749184019  1.50325667861055
  8   6.30651688279774 0.982259751679324
  9   7.03619305198773 0.387613711877733
 10    7.5718591771428 -0.353397349207518
 11   7.74764930271561 -1.24916637946719
 12   7.57609340403467 -1.72863903304199
 13    7.1834797709398 -2.09156692917545
 14   6.62213319534329 -2.17008755955984
 15    6.1739628790611 -1.89689276625451
 16   5.98844843360558 -1.46694086116116
 17   5.92707697480838 -1.18402444068872
 18   5.88557572622992 -0.947992523904874
 19   5.84675719097303 -0.743121098976502
 20   5.80513250323825 -0.561090327154533
 21   5.75919049897538 -0.397337335257452
 22   5.70867779958224 -0.247997675585474
 23   5.65351852586115 -0.109389285726558
 24   5.59353324485511 0.0216666055540928
 25   5.52849480177253 0.147610797484448
 26   5.45825342633102 0.270135460825105
 27   5.38281918111179 0.390311338057844
 28   5.30237527286524 0.508763235243697
 29   5.21723632454516 0.625835447782598
 30   5.12778131179422 0.741716859381783
 31   5.03438902698889 0.856518252077448
 32   4.93739230068978 0.970309723199226
 33   4.83705464016362  1.08313232435638
 34   4.73356511830293  1.19499716794767
 35   4.62704478721751   1.3058810749269
 36   4.51755875437611  1.41572352587378
 37   4.40512991682303  1.52442655879341
 38   4.28975217149628  1.63185755876398
 39   4.17140207245439  1.73785411404746
 40   4.05004863776686  1.84223002447287
 41   3.92566126416624   1.9447816394029
 42   3.79821592077586  2.04529396306109
 43   3.66769974221055  2.14354615789387
 44   3.53411424293049  2.23931628489151
 45   3.39747729541901  2.33238520108771
 46   3.25782408935385  2.42253966693603
 47    3.1152072236639  2.50957470182463
 48   2.96969615561728  2.59329529963739
 49   2.82137614095609  2.67351758003691
 50   2.67034687554982  2.75006948896689
 51    2.5167209425608  2.82279111915387
 52   2.36062221455107  2.89153476019958
 53    2.2021842808876  2.95616472894717
 54   2.04154898186293  3.01655707347071
 55   1.87886506798494  3.07259918507922
 56   1.71428702860878  3.12418938250621
 57    1.5479740638281  3.17123648653064
 58   1.38008921327656  3.21365942360244
 59   1.21079861368892  3.25138685748931
 60   1.04027086844339  3.28435687216546
 61  0.868676510600714  3.31251669131558
 62  0.696187544221678  3.33582244622747
 63  0.522977037326864   3.3542389764681
 64  0.349218767619309  3.36773966588614
 65  0.175086898867755  3.37630630206148
 66  0.000755681480078307   3.3799289610958
 67  -0.173600823149204  3.37860590715638
 68  -0.347809009045721  3.37234351193529
 69  -0.521695984254611  3.36115618779837
 70  -0.69508982184906  3.34506634040177
 71  -0.867819818967612  3.32410434029256
 72  -1.03971676289913  3.29830852123669
 73  -1.21061321245078  3.26772520822874
 74  -1.38034381346937  3.23240878378524
 75  -1.54874565158519  3.19242179872822
 76  -1.71565866318466  3.14783513471678
 77  -1.88092612655979   3.0987282209912
 78  -2.04439524474346  3.04518931061869
 79  -2.20591784796467  2.98731580895031
 80  -2.36535123453841  2.92521464511967
 81  -2.52255915641481  2.85900266933436
 82  -2.67741296408863   2.7888070430475
 83  -2.82979289638917  2.71476558184631
 84  -2.97958948530206  2.63702700024479
 85  -3.12670503366788  2.55575098691549
 86  -3.27105508176863  2.47110803702623
 87  -3.41256976001892  2.38327895300641
 88  -3.55119490385238  2.29245391167818
 89  -3.68689276748021  2.19883099705537
 90  -3.81964217078574  2.10261408657574
 91  -3.94943789635458   2.0040099792849
 92   -4.0762891361687  1.90322467647686
 93   -4.2002167961071  1.80045874853055
 94  -4.32124944775699  1.69590179450718
 95  -4.43941769889845   1.5897261176957
 96  -4.55474675163665   1.4820799026104
 97  -4.66724690092974  1.37308042063489
 98  -4.77690179273984  1.26280805836151
 99  -4.88365449411884  1.15130219200299
100  -4.98739197479654  1.03855998723196
101  -5.08792973276358 0.924538746882509
102  -5.18500015717423 0.809161024576113
103  -5.27825061093029 0.692318826704625
104  -5.36725909184796 0.573868573827016
105  -5.45157429311131 0.453603058075452
106  -5.53077995051526 0.331183427618245
107  -5.60456961338085 0.206018121678972
108  -5.67280217083631 0.0770907009935922
109  -5.73550139603528 -0.0572357434418496
110  -5.79277578469188 -0.199376874122244
111  -5.84467784307254 -0.352550537208912
112  -5.89111443941387 -0.520560643143822
113  -5.93208885377343 -0.707441758729335
114  -5.96876097524606 -0.917870317011113
115  -6.00614355607328 -1.16021061856025
116  -6.06075303650536 -1.45064471732476
117  -6.23007356297852 -1.88793735458893
118  -6.66196393271053 -2.18790853577888
119  -7.22379610566336 -2.15939965842339
120  -7.64946384798615 -1.84304719978952
121  -7.87028816966285 -1.38897283340535
122  -7.77767159080751 -0.485868657716986
123  -7.29001062060789 0.277014028711491
124  -6.59037896518184 0.876836579948704
125  -5.80116398113849  1.37263630339576
126  -4.98369726343033  1.83138628116341
127  -4.16396421768601  2.29249814873181
128  -3.34544776019628  2.76173792089291
129  -2.49180578803295  3.19726104906668
130  -1.47601917789599  3.47261473428312
131  -0.114062615850274   4.1379513402451
132  0.997154708289808  4.09323321450695
133   2.08171685672155  3.86844673630726
134   3.10950892679295  3.47744443987963
135   4.08348347501287  2.97826236357288
136   5.03405642561974  2.43501591549379
137   5.97464061753278  1.86552052686686
138   6.87451333117467  1.22399712743885
139   7.65467421880238   0.4295186967255
140   8.14059751460566 -0.585189015813785
141   8.01612832315185 -1.70646794337219
142   7.52551560051377 -2.25369153903736
143   6.83263944665174 -2.49069018217289
144   6.10775122451953 -2.41368276917798
145   5.43679496758553 -2.13752918861315
146   4.76286318450317 -1.75072520063217
147   4.66760616277096 -1.67597785794356
148   4.57592207129689 -1.59817232513474
149   4.48705437633067 -1.51701853809015
150   4.40089625885358 -1.43282051264951
151   4.31732099177051 -1.34594156335067
152   4.23612288229016 -1.25675329319961
153   4.15704669869106 -1.16565536533509
154    4.0797883666695 -1.07307430115937
155    4.0040005006634 -0.979433865420738
156   3.92929453402467 -0.885136439546342
157   3.85526946195893 -0.790539970356284
158   3.78151768313059 -0.695966146286024
159   3.70766204727481 -0.601689451093099
160   3.63334841465824 -0.50796003362621
161    3.5582793837818 -0.414989805398855
162   3.48218565422551 -0.322982710821256
163   3.40486406635752 -0.232106828364492
164   3.32612920931102 -0.142534558414475
165   3.24585917129813 -0.0544016865928843
166   3.16393565658691 0.0321423807644724
167   3.08029931566387 0.116988222860903
168   2.99487907726654 0.200001928667436
169   2.90765959211607 0.281094426317354
170   2.81860336335097 0.360143331047015
171   2.72772402413223  0.43707379894996
172   2.63500746008314 0.511771019358164
173   2.54048782019191 0.584171531283569
174   2.44416814177298 0.654165563096178
175   2.34609643879623 0.721697255753739
176   2.24629115787327 0.786662923935307
177   2.14481034048841 0.849011927631688
178   2.04168584082528 0.908646299005333
179   1.93698459724128 0.965520842023276
180   1.83075116358704   1.0195445683757
181   1.72305939468754  1.07067589505757
182   1.61396644182633  1.11883341879577
183   1.50355242526447  1.16397956903169
184    1.3918852514308  1.20604214197048
185   1.27905095842155  1.24498884969881
186   1.16512706884867  1.28075823970824
187   1.05020410743568  1.31332211770308
188  0.934367733003751  1.34263071087986
189  0.817712447129452  1.36866155556879
190  0.700329821245785  1.39137485551495
191   0.58231748258926  1.41075454557842
192  0.463771543130517  1.42677189891428
193  0.344791547445203  1.43941613056618
194  0.225476572786016   1.4486689048008
195  0.105927390722223  1.45452666038822
196  -0.0137554658754369  1.45697968402508
197  -0.133470945719356  1.45603128176409
198  -0.253118207054141    1.451681652097
199  -0.372596842886397  1.44394022393087
200  -0.491806828632107  1.43281577167565
201  -0.610649399029818  1.41832576802153
202  -0.729026397694462  1.40048670140789
203  -0.846841564865441   1.3793229530251
204  -0.963999905128718   1.3548601473323
205  -1.08040867712088  1.32712946508929
206  -1.19597689111361  1.29616395047914
207  -1.31061671785911  1.26200300150696
208  -1.42424234546993  1.22468702396891
209  -1.53677151763135  1.18426182264784
210  -1.64812503062923  1.14077594119057
211  -1.75822742606548  1.09428183036974
212  -1.86700648273856   1.0448339763844
213  -1.97439474888036 0.992491782287561
214   -2.0803281706393 0.937315961930933
215  -2.18474728876753 0.879370679393842
216  -2.28759707090729 0.818722702845869
217  -2.38882727025333 0.755441623035317
218  -2.48839174246561 0.689598446809388
219  -2.58625028955902 0.621268107001772
220  -2.68236758101671 0.550527314818005
221  -2.77671425922115 0.477455720923477
222  -2.86926786503687 0.402136468865339
223  -2.96001412579011 0.324656931375627
224  -3.04894726739207 0.245108087658904
225  -3.13607366958227 0.163587436500929
226  -3.22141336528853 0.0801988960710087
227  -3.30500309822034 -0.00494593551336904
228  -3.38690058724034 -0.0917258728370071
229  -3.46718937457684 -0.180008303297971
230   -3.5459823602832 -0.269648969559908
231   -3.6234284696635 -0.36048909469911
232  -3.69971735098393 -0.452354111915437
233  -3.77508263691183 -0.545052432371848
234  -3.84980431252568 -0.638372535409443
235  -3.92420775781147 -0.732078821672378
236  -3.99865566469607 -0.825907804766734
237  -4.07353638544321 -0.919561768896759
238  -4.14924644345336 -1.01270437577679
239  -4.22616860111218 -1.10496318572696
240  -4.30465335793385 -1.19594100860392
241  -4.38500886979563 -1.28523740673575
242  -4.46749774653993 -1.37247483758391
243  -4.55233273480843 -1.45730620981738
244  -4.63965548768409 -1.53939299892482
245  -4.72959227892983 -1.61846081590083
246  -4.82291408390452 -1.69484470951796
247  -5.48379881492949 -2.10256453478104
248  -6.13811513562046 -2.41123800942131
249  -6.85412842935835 -2.53679011203386
250  -7.56300907393024 -2.35842312876938
251  -8.10125704568098 -1.85854273620795
252  -8.32657739315742 -0.753791887774217
253  -7.90871996696197 0.292504118339366
254  -7.15738739598862  1.11952319740208
255  -6.26322174956928  1.77838739562208
256  -5.31438617579061  2.34900914429041
257  -4.34251478456288   2.8792793418828
258  -3.34407845856551  3.36537693065266
259  -2.30198290806195  3.75771544748617
260  -1.21943931589513  4.01824738272507
