// Id               X                Y
  1  -0.0832670363445352 -0.0920910919722484
  2  0.914278251894631 -0.0888717819119522
  3    1.8613161646491 -0.0142395047766013
  4   2.78110330834255 0.187946779090183
  5   3.65862481705551 0.500556811179921
  6   4.48900306707612 0.899607490694107
  7   5.28295858407164  1.34529822247606
  8   6.06833115331503  1.78565555334976
  9   6.88455392129642  2.15103524543002
 10   7.75244051483193  2.30779778242161
 11   8.62283455535295  2.14496660047424
 12   9.01839967579459  1.86100130955222
 13   9.29142967461394  1.42180547261378
 14   9.29711007810929 0.855414855179034
 15   8.96194107528028 0.453047747304783
 16   8.23388764365783 0.443699013285322
 17   8.23388742892938 0.443699002386286
 18   8.02120247654725 0.430560185842865
 19   7.80390807167007  0.40766215776186
 20   7.59371535875581 0.374925474421048
 21   7.39201398112012 0.333630797281639
 22   7.19865867714838 0.285793574251049
 23   7.01372665917617 0.234077492294153
 24   6.83712814296372 0.181292841964972
 25   6.66802128970123 0.129711679446274
 26   6.50468268624079 0.0807072217195945
 27   6.34494642694058 0.0348897094303193
 28   6.18688038640312 -0.00752637326342934
 29   6.02919308429538 -0.0464633866992352
 30   5.87123418143662 -0.0819062373189654
 31   5.71279099284368 -0.113911492985431
 32   5.55387822183088 -0.142616947040645
 33   5.39459427715703 -0.16823097427531
 34   5.23504345695049 -0.191009569417711
 35   5.07530279362689 -0.21123170214917
 36   4.91541404796876 -0.229178937840277
 37   4.75538773510875 -0.245121095524576
 38   4.59521154432775 -0.259307488983579
 39   4.43485917757499 -0.271962500680027
 40   4.27429782970652 -0.283284180182133
 41   4.11349375172714 -0.293444786786963
 42   3.95241595077203 -0.302592480902645
 43   3.79103834035906 -0.310853617110289
 44   3.62934072377501 -0.318335279309456
 45   3.46730897041157 -0.325127829672062
 46   3.30493468470457 -0.331307331718853
 47   3.14221459838204 -0.336937766917628
 48   2.97914985211941 -0.342073003845477
 49   2.81574527754834 -0.346758505863245
 50   2.65200874630247 -0.351032781531554
 51   2.48795061913346 -0.354928594096576
 52   2.32358330410228 -0.358473953795941
 53   2.15892091710735 -0.361692920526707
 54   1.99397902901999 -0.364606245421373
 55   1.82877447991637 -0.367231878842482
 56   1.66332524083071 -0.369585369903788
 57   1.49765030574882 -0.371680179440419
 58   1.33176960010462 -0.373527924857066
 59   1.16570389595305 -0.375138571837719
 60  0.999474727639902 -0.376520584741783
 61   0.83310430480691 -0.377681044772754
 62  0.666615421763825 -0.378625742738572
 63  0.500031363618325 -0.379359251414376
 64  0.333375810184183 -0.37988498112031
 65  0.166672738752699 -0.380205221067134
 66  -5.36734736894156e-05 -0.380321168224955
 67  -0.166779146921519 -0.380232944862414
 68  -0.333479397199015 -0.379939605420113
 69  -0.500130232943111 -0.379439132967595
 70  -0.666707654255912 -0.378728425098936
 71  -0.833187951811211 -0.37780326870173
 72  -0.999547806335077 -0.376658302539909
 73  -1.16576438775916 -0.375286965968119
 74  -1.33181545308156 -0.373681431281605
 75   -1.4976794420542 -0.371832516129907
 76   -1.6633355704476 -0.369729571011687
 77  -1.82876392198665 -0.367360335053439
 78  -1.99394554220409 -0.364710751008978
 79  -2.15886254039074 -0.361764727688923
 80  -2.32349820936214 -0.35850383488972
 81  -2.48783717651307 -0.354906912471204
 82  -2.65186560300799 -0.350949571762038
 83  -2.81557145006356 -0.346603564300246
 84  -2.97894483105537 -0.341835990503663
 85  -3.14197846428187 -0.336608319782302
 86  -3.30466823220779 -0.330875194508319
 87   -3.4670138373401 -0.324582993887448
 88  -3.62901952108164 -0.317668140966562
 89  -3.79069477862033 -0.310055147816416
 90  -3.95205495917457 -0.301654411866438
 91  -4.11312158650694 -0.292359802896097
 92  -4.27392217107408 -0.282046119417617
 93  -4.43448921787052 -0.270566551769591
 94  -4.59485807640107 -0.25775037709602
 95  -4.75506326002685 -0.243401241429339
 96  -4.91513293649475 -0.227296569268491
 97  -5.07508155705436 -0.209188885467994
 98  -5.23490120752247 -0.188810113269057
 99  -5.39455347772515 -0.165880133787012
100  -5.55396581748449 -0.140120831871334
101  -5.71303994037539 -0.111276072602593
102  -5.87168516322414 -0.07913588941679
103  -6.02989567397744 -0.0435591454573317
104    -6.187891983129 -0.00448453916809163
105  -6.34632615377583 0.0380771406497035
106  -6.50647805988766 0.0840485335238694
107  -6.67025168047912 0.133208202811707
108  -6.83977836610476 0.184933504573483
109  -7.01675881411091 0.237839543850863
110  -7.20202822475169 0.289644803452809
111  -7.39566925923108  0.33752607671569
112  -7.59758187193184 0.378801992849779
113   -7.8079000422244  0.41144512610037
114  -8.02530999852693 0.434169374686397
115  -8.23827602715387 0.447032132685459
116  -8.24090755393083 0.447160417238076
117  -8.96941961318167 0.455353672319003
118  -9.30592107119987 0.858101244105266
119  -9.29900947254434   1.4279200998221
120  -9.02314407359879  1.86626009661451
121  -8.62485278802711  2.14742527354707
122  -7.75202292587929   2.3007350764714
123  -6.88572979241658   2.1309134079259
124  -6.07512911712492  1.75043394979274
125  -5.29791298152553  1.29233724055584
126  -4.51113206258137 0.834277077336287
127  -3.68727090108398 0.428253435259575
128  -2.81802861385214 0.116669344987485
129  -1.91451650412322 -0.0754167346354132
130  -0.998401672785577 -0.141735810402706
131  0.052520792383407 0.460709993448535
132  0.940646431979388 0.501019762862344
133   1.82313625983457 0.604763137624078
134   2.69144499567957 0.804135618601532
135   3.53463866762382  1.11029656044611
136   4.35060154289135  1.50628698418243
137   5.15823454953356  1.95455007188734
138   6.01057624527728  2.40201914589744
139   7.01217392746677  2.75996816003791
140   8.10424381989642  2.80703004734274
141   9.09472710621481  2.34173427796712
142   9.51623517351923  1.77161458003301
143    9.6850481696619  1.09347416908572
144   9.62065631020006   0.4139909525897
145   9.39546292881661 -0.216911145839856
146   9.02647272671702 -0.88147615536658
147   8.30015871082548 -1.65610410382393
148    8.1674780894233 -1.74497477550363
149   8.07872281386909 -1.79863445310737
150   7.98633257909828 -1.85016008455114
151   7.88548007319695 -1.90191785551094
152   7.77560633888674 -1.95358469635646
153      7.65450853735  -2.0055183319654
154   7.52009183549415 -2.05781296412667
155   7.37233996686104 -2.10971273557717
156   7.21358386848429 -2.15992846191391
157   7.04726921525229 -2.20730233177109
158   6.87646663290357 -2.25121018549551
159   6.70315825010392 -2.29154498073927
160   6.52831609409216 -2.32850339034649
161     6.352284532882  -2.3623918956807
162   6.17512389127331 -2.39351832071729
163   5.99681981404224 -2.42215054245388
164   5.81738047763944 -2.44851051026507
165   5.63686629333196 -2.47278192002535
166   5.45538665072491 -2.49512068459811
167   5.27308434628891 -2.51566389885552
168   5.09011826147966 -2.53453619425916
169   4.90664885149277 -2.55185368688533
170   4.72282780672152 -2.56772612231451
171   4.53879172264811 -2.58225783362164
172   4.35465901143784 -2.59554800667285
173   4.17052915917817 -2.60769060167457
174   3.98648351840872 -2.61877415456435
175   3.80258698721125 -2.62888158778372
176   3.61889009550594 -2.63809009538062
177   3.43543116800251 -2.64647112609694
178     3.252238353349 -2.65409046361774
179   3.06933140105455 -2.66100839011078
180   2.88672313538868 -2.66727991354526
181   2.70442062276163 -2.67295503820685
182   2.52242605984874  -2.6780790593881
183   2.34073742726485  -2.6826928661293
184   2.15934896092672 -2.68683323927921
185   1.97825149307177 -2.69053313550878
186   1.79743270967149 -2.69382195094019
187   1.61687736279963  -2.6967257605945
188   1.43656746713296 -2.69926753186324
189   1.25648250050975 -2.70146731168662
190   1.07659962028628 -2.70334238813273
191    0.8968939006569 -2.70490742769031
192  0.717338591361667 -2.70617458989741
193  0.537905395248608 -2.70715362100599
194  0.358564760731528 -2.70785192829771
195   0.17928618492635 -2.70827463647369
196  3.85237343336675e-05 -2.70842462728443
197   -0.1792096940615 -2.70830256327314
198  -0.358489950854466 -2.70790689619533
199  -0.537833424139427 -2.70723386036146
200  -0.717270672001272 -2.70627745082983
201  -0.896831322289424 -2.70502938606038
202  -1.07654376832939 -2.70347905432859
203  -1.25643487478645 -2.70161344290471
204  -1.43652969774504 -2.69941704874117
205  -1.61685122277993 -2.69687176921243
206  -1.79742012336126 -2.69395677135481
207  -1.97825453899888 -2.69064833811459
208  -2.15936986785722 -2.68691969040028
209  -2.34077856212517 -2.68274078432262
210  -2.52248990643354 -2.67807808398005
211  -2.70450975061892 -2.67289431157756
212  -2.88684015906004 -2.66714817860966
213  -3.06947893096685 -2.66079410430564
214  -3.25241894107883 -2.65378193047225
215  -3.43564725027911 -2.64605664511562
216  -3.61914394304151 -2.63755813047195
217  -3.80288066601737 -2.62822095379129
218  -3.98681887239865 -2.61797422056321
219  -4.17090782322332 -2.60674150855816
220  -4.35508246319756 -2.59444089517168
221  -4.53926137888597  -2.5809850773172
222  -4.72334516464153 -2.56628155860251
223  -4.90721566668867 -2.55023283755728
224  -5.09073673963849 -2.53273646709987
225  -5.27375730354276 -2.51368476359295
226  -5.45611756519108 -2.49296382258918
227  -5.63765912703536 -2.47045135988263
228  -5.81823909747917 -2.44601278433756
229  -5.99774679701232 -2.41949493398396
230  -6.17611849753278 -2.39071731684169
231  -6.35333974213809 -2.35946200378569
232  -6.52941495996947 -2.32546647249129
233  -6.70427065190017 -2.28843010801346
234  -6.87754902039188 -2.24805549972625
235  -7.04827181238075 -2.20415527938711
236  -7.21446934378845 -2.15684142201598
237  -7.37310879729277 -2.10673206746292
238  -7.52079410656347 -2.05496608386574
239  -7.65522664779737 -2.00280905937544
240  -7.77643306685404 -1.95099626868146
241   -7.8865401480718 -1.89940251367656
242  -7.98784889539949 -1.84759954611408
243  -8.08099888184999 -1.79582969744422
244  -8.17063478836308 -1.74180192337735
245  -8.30402459994641 -1.65269311608697
246  -9.03207101151543 -0.878768862529985
247  -9.40233254609198 -0.214730375618775
248  -9.62896531711739 0.418078293770998
249  -9.69298245862207  1.09957921300804
250  -9.52160609134335  1.77843198761557
251  -9.09602227440011  2.34675478139986
252  -8.09974619296475  2.80290415630642
253  -7.00667051396964   2.7411090744461
254  -6.00668486003071  2.36595905927298
255  -5.14189929694528  1.89347715551047
256  -4.33303181220564  1.43021368711332
257  -3.51153195735195  1.02476870812584
258  -2.65637851132905 0.717447615427442
259    -1.768782126605 0.529330379182307
260  -0.859431048430423 0.455152872742009
