// Id               X                Y
  1  -0.13075255905872  2.37370758678879
  2  0.823825023850019  2.33381529469545
  3   1.89040997745461  2.15675101247846
  4   2.94243670915981  2.06320367433389
  5   3.92255203018251  2.04748267224004
  6   4.86884908812641  2.07205319834132
  7   5.80079720746861  2.10830991197676
  8   6.72340394030955  2.11513381233589
  9   7.62718511583476   2.0044115713258
 10   8.46066934551255  1.66899512201932
 11    9.0921345007086  1.02774065210409
 12   9.22494210739718 0.550406857795028
 13   9.14869614322889 0.0615716562461945
 14   8.86049763995999 -0.337077116004125
 15   8.42591823628502 -0.560746503608249
 16   7.90644028888965 -0.587456429208277
 17   7.76395082131829 -0.586444429289345
 18   7.62066210110946 -0.581179455917652
 19    7.4763619514664 -0.570910528609797
 20   7.33109671780924 -0.554949223900543
 21   7.18505545672183 -0.532759834351432
 22   7.03849361076048 -0.504005844731119
 23   6.89168302711705 -0.468562371742952
 24   6.74487639311528 -0.426504291023685
 25   6.59828122896025 -0.378078409554019
 26   6.45204297216291 -0.323666904931078
 27   6.30623749045256 -0.263748233140443
 28   6.16087227134028 -0.198860355720015
 29   6.01589425788609 -0.129569446934173
 30   5.87120166886387 -0.0564455440848618
 31   5.72665724890976 0.0199547642068424
 32   5.58210097813017 0.0990993994215858
 33   5.43736101731142 0.180486812312152
 34   5.29226234872065 0.263648248387787
 35   5.14663308318551 0.348147428724757
 36    5.0003087198842 0.433578607045425
 37   4.85313479264584 0.519563739346162
 38   4.70496836101186 0.605749298814191
 39   4.55567875362243 0.691803100182671
 40   4.40514788515705  0.77741136529457
 41   4.25327037346441 0.862276161943082
 42   4.09995359783065 0.946113275505215
 43    3.9451177711585  1.02865052231171
 44   3.78869604998412   1.1096264804232
 45   3.63063467544924  1.18878959400561
 46    3.4708931219828  1.26589759754422
 47   3.30944422490098  1.34071720433164
 48   3.14627425902244  1.41302400521078
 49   2.98138294593389  1.48260253026985
 50   2.81478337343609   1.5492464307658
 51   2.64650181846755  1.61275874883593
 52   2.47657746917668  1.67295224452677
 53    2.3050620485219  1.72964976232691
 54    2.1320193422856  1.78268461487946
 55   1.95752464014554  1.83190097834234
 56   1.78166409489405  1.87715427961821
 57   1.60453401104033  1.91831158032048
 58   1.42624006707402  1.95525193508637
 59   1.24689648333903   1.9878667388809
 60   1.06662513806644  2.01606003453173
 61  0.885554643493373  2.03974880520541
 62  0.703819383354172  2.05886321478118
 63  0.521558523136342  2.07334683114923
 64  0.338914994140358  2.08315678715918
 65  0.156034461431303  2.08826392374364
 66  -0.0269357224814523  2.08865286356428
 67  -0.209847570261095  2.08432206675903
 68  -0.392553515117436  2.07528381404728
 69  -0.574907463432975  2.06156417202804
 70  -0.75676583880013  2.04320288700644
 71  -0.937988614174198  2.02025326117881
 72  -1.11844032398596  1.99278196279052
 73  -1.29799105445314  1.96086881930997
 74   -1.4765174022398   1.9246065537261
 75   -1.6539034003401  1.88410050557527
 76  -1.83004140048204  1.83946830684944
 77  -2.00483291049974  1.79083954583065
 78  -2.17818937567933  1.73835539903701
 79  -2.35003290109344  1.68216825638555
 80  -2.52029690392611  1.62244132901852
 81   -2.6889266910372  1.55934825932295
 82   -2.8558799514138  1.49307273137312
 83  -3.02112715813251  1.42380809964714
 84  -3.18465187204682  1.35175704369979
 85  -3.34645094439316  1.27713126999635
 86  -3.50653461684831   1.2001512800858
 87    -3.664926523803  1.12104623501107
 88  -3.82166360646443  1.04005394913419
 89  -3.97679595572417 0.957421055754269
 90  -4.13038660657126 0.873403392009997
 91  -4.28251131160843 0.788266656602373
 92   -4.4332583212045 0.702287395462028
 93  -4.58272819078812 0.615754368069246
 94  -4.73103361749959 0.528970336764325
 95  -4.87829927520618 0.442254301057179
 96  -5.02466156561588 0.355944164514179
 97  -5.17026813282466  0.27039976950773
 98  -5.31527690190589 0.186006160081175
 99  -5.45985430898853 0.103176829856157
100  -5.60417230913295 0.0223565748830658
101  -5.74840370861991 -0.0559766027004649
102  -5.89271541161676 -0.131311302979518
103  -6.03725934633126 -0.203105237748169
104  -6.18216118803361 -0.270791632212424
105   -6.3275075494633 -0.33379080903092
106  -6.47333303277021 -0.391528122911131
107  -6.61960930564061 -0.443458928743322
108  -6.76623893107153 -0.489100303924266
109  -6.91305670873685 -0.528067808445415
110  -7.05984049810347 -0.560113855724993
111  -7.20633198204279 -0.585162668438937
112  -7.35226644001406 -0.603335653020516
113  -7.49741099555683 -0.61496025866583
114  -7.64161452391292 -0.620554346944814
115  -7.78487831847677 -0.620776428494495
116  -7.92745649765743 -0.616331467981746
117  -8.44046722911417 -0.566544319352257
118   -8.8625849651473 -0.320586703284767
119  -9.12746148817462 0.0939566393846497
120  -9.17553914293336 0.586512327428868
121  -9.01778768958152  1.05622349435524
122  -8.36030065380003  1.67063864964386
123  -7.51827952720349  1.98337247801366
124  -6.61374821610457  2.07948708314475
125  -5.69398938064481  2.06433524743896
126  -4.76837536241951  2.02142197089844
127  -3.83889368004508  1.99370082511134
128  -2.91165148165037  2.00746690615918
129  -1.99539203741607  2.09069095889289
130  -1.06114666778862    2.210026467693
131  0.299343240501576  2.75939572842705
132    1.2379634488657  2.74707232226163
133    2.1533858440328  2.70918369335794
134   3.06776657103338  2.67350351174086
135   3.99372991364269  2.66680302233454
136   4.93233568624324  2.69155402072379
137   5.89694668316194  2.72163807495084
138   6.94839604419104  2.69410387977794
139   8.00735538566541  2.49527210147334
140   8.97773504679325  1.99166158203708
141   9.63482999060705  1.12073622484792
142   9.76527621036291 0.432713978800429
143    9.6322642164514 -0.252964841681795
144   9.25922197745289 -0.842040911361147
145   8.71042770472158 -1.26950219397312
146   8.04626338437781 -1.51654514285243
147   7.84987875341263 -1.54639435708288
148   7.65286077947279 -1.55985160624205
149   7.45639832442318 -1.55847334147868
150   7.26150410872002 -1.54380356329858
151   7.06896925321198 -1.51734261040673
152   6.87935941726701 -1.48051057989049
153   6.69303986194662 -1.43462188586982
154   6.51021314441352 -1.38087507071374
155   6.33095686941162 -1.32035465552504
156   6.15525518787578 -1.25403970769455
157   5.98302255913783 -1.18281468731541
158   5.81412084863122 -1.10747991287062
159   5.64837165213276 -1.02876053847102
160   5.48556560764994 -0.947313918342541
161   5.32546997214217 -0.863735699855705
162   5.16783522849547 -0.778565101264663
163   5.01240108480992 -0.692289756696815
164   4.85890197287771 -0.605350369108268
165   4.70707202542834 -0.518145278147804
166   4.55664947173872 -0.43103494236115
167   4.40738039062593 -0.344346282537167
168   4.25902180374728 -0.258376788704308
169   4.11134410428618 -0.173398340585804
170   3.96413289653537 -0.0896606224455087
171   3.81719024627142 -0.00739420904755153
172   3.67033553932842 0.0731868989897862
173   3.52340581140202 0.151882891905447
174   3.37625600647843 0.228506587348433
175   3.22875858728245 0.302881446149009
176   3.08080362388991 0.374841171531137
177   2.93229770045148 0.444227479074234
178   2.78316433741372  0.51089142941495
179   2.63334193747563 0.574689767706242
180   2.48278518217003  0.63548928752261
181   2.33146145707183 0.693159696849078
182   2.17935402611754 0.747583398891506
183   2.02645614894732 0.798641664830964
184   1.87277689533009 0.846233534647661
185   1.71833217866911 0.890250809424517
186   1.56315384669015 0.930610951014019
187   1.40727726601955 0.967215547098255
188   1.25075367938063  1.00000252293758
189   1.09363482970434   1.0288829416486
190  0.935987551483734  1.05381689688226
191  0.777877035746481  1.07472532470353
192  0.619381519940392   1.0915912885019
193  0.460576758892188  1.10434694537754
194  0.301547970842379  1.11299785774881
195  0.142378418889163   1.1174897151159
196  -0.0168441110718623  1.11784881072986
197  -0.176032290324289  1.11403731404053
198  -0.335099907860655  1.10609953774649
199  -0.493959485529093  1.09401710491483
200  -0.652530081511747  1.07784931878944
201  -0.810728360685192  1.05759957023998
202  -0.968481888664068  1.03333947870692
203  -1.12571591151729  1.00509534554005
204    -1.282369446135 0.972949262261651
205   -1.4383806414672 0.936950243939866
206  -1.59370284404357 0.897189983311708
207  -1.74829110566577 0.853738879275988
208  -1.90211608042949 0.806698174091912
209  -2.05515330219245 0.756157668043012
210  -2.20739384557462  0.70222863498086
211  -2.35883689952157 0.645018228704006
212  -2.50949713776988 0.584648542600872
213  -2.65940026427229 0.521242513036241
214  -2.80858768503983 0.454934100414406
215  -2.95711426765479 0.385861357188339
216  -3.10505112029801 0.314171589544037
217   -3.2524847377778 0.240018542011142
218  -3.39951858550005  0.16356514510163
219  -3.54627293106709 0.0849829869107399
220  -3.69288566707719 0.00445422654721491
221  -3.83951228734205 -0.0778275649389952
222  -3.98632609308189 -0.161655432139453
223  -4.13351787441392 -0.246807181039033
224  -4.28129540104816 -0.333042866148773
225  -4.42988240341395 -0.420102019640865
226  -4.57951708905015 -0.507700388325601
227  -4.73045003905853 -0.595526322194504
228  -4.88294145185111  -0.6832367976512
229  -5.03725766665489 -0.770453181871329
230  -5.19366695880418 -0.856756814482998
231  -5.35243462280642 -0.941684509541762
232  -5.51381739494406 -1.02472404270859
233  -5.67805726557841 -1.10530962835734
234  -5.84537468390863 -1.18281728532594
235  -6.01596101803309 -1.25655985853859
236  -6.18996986036009  -1.3257813366237
237  -6.36750635036596 -1.38965006564636
238  -6.54861317062896 -1.44725063301613
239   -6.7332514142582 -1.49757474824097
240   -6.9212744863446 -1.53951253671317
241  -7.11239423227586 -1.57184729800193
242  -7.30614141306873 -1.59325852299703
243  -7.50182801662902 -1.60233852715951
244  -7.69852576842356 -1.59762512497804
245  -7.89507921924699 -1.57764397795366
246  -8.09016759438151 -1.54093985196368
247  -8.74580032546072 -1.26671897868331
248  -9.27484462533074 -0.814579610187199
249  -9.61931637781423 -0.207969210496618
250  -9.71931724157811 0.483750110446659
251  -9.55770472400095  1.16564568684585
252  -8.86656627008377  2.01082945325704
253  -7.88206730956952  2.48647893316781
254  -6.81937155313721  2.66541128167101
255  -5.76487447341641  2.68111215721119
256   -4.7730491594049  2.64373450487789
257  -3.81493519135692  2.61652387101996
258   -2.8506680158291  2.62527138580542
259  -1.80836224519681  2.67183715402924
260  -0.750262262053642  2.72682245239896
