// Id               X                Y
  1  -0.0835847782782597 0.397705757785764
  2  0.901719852145913 0.416119247871529
  3   1.90384397029049 0.470415757991685
  4   2.92128242869059  0.54620651049563
  5   3.85140367115457 0.590878742048368
  6   4.77584103364088 0.718549748644304
  7   5.66938016836216 0.990264186311086
  8   6.51760999746544  1.37972660531387
  9   7.35423705406894  1.78995565484846
 10   8.24341651657624  2.04542264241394
 11    9.1572917943136  1.88627699139373
 12   9.52081730969201    1.516425863451
 13   9.65447907184297   1.0136743202675
 14   9.50650958732616 0.518371617717949
 15   9.13105390360589 0.177030373207432
 16   8.48793519447244 0.0539581454326208
 17    7.8464384125117 0.0850793325177437
 18   7.78156523676161 0.0897199585317379
 19   7.73284877711491 0.0933678520435039
 20   7.67743165388928 0.0976970854441184
 21   7.60982719870101 0.103211344227208
 22   7.52930772001683 0.110108023501539
 23   7.43602664788873 0.118505081015301
 24    7.3302799958431 0.128490574754972
 25   7.21225600344762 0.140117308036421
 26   7.08172527622695  0.15341567430872
 27   6.93689371860502 0.168499581979539
 28   6.76882751398681 0.186140472087905
 29   6.59011619285203  0.20470979758912
 30   6.40631910228981 0.223244640092929
 31   6.21948248055856 0.241142964321486
 32   6.03081082802608  0.25791222789093
 33   5.84106211264825 0.273152444779546
 34   5.65073181104659 0.286552716999746
 35   5.46016809999403 0.297886376313332
 36    5.2696434251021 0.307004370699602
 37   5.07939367060786 0.313827898319225
 38   4.88963492071748 0.318340733008951
 39   4.70056691596963 0.320581298658411
 40   4.51237025343093 0.320634533308963
 41    4.3252018932129 0.318623704203832
 42   4.13919139470573 0.314702420073297
 43   3.95443883164531 0.309047093660643
 44    3.7710144901948 0.301850059069294
 45   3.58896006143203 0.293313478648677
 46   3.40829091682563 0.283644105361625
 47   3.22899906804052   0.2730489090167
 48   3.05105647886767 0.261731530996908
 49   2.87441847479472 0.249889501491344
 50   2.69902706653254 0.237712134042843
 51    2.5248140621296 0.225379002573265
 52   2.35170388803393 0.213058904033339
 53   2.17961607427246 0.200909213560824
 54   2.00846738470739  0.18907554671981
 55   1.83817359182468 0.177691653428776
 56   1.66865090819294 0.166879479239912
 57   1.49981709492331 0.156749340707168
 58   1.33159227230837 0.147400171989606
 59   1.16389946030459 0.138919809164433
 60  0.996664877446039 0.131385286764764
 61  0.829818026750517 0.124863127755899
 62  0.663291596647549 0.119409613566376
 63   0.49702120422107 0.115071025004459
 64  0.330945007302449 0.111883848059771
 65  0.165003211272326 0.109874940872731
 66  -0.000862504124037847 0.109061659714739
 67  -0.166709613065146 0.109451942821152
 68  -0.332595402461126 0.111044351512473
 69  -0.49857763688453 0.113828068376493
 70  -0.664715205313926 0.117782852509544
 71  -0.831068725366866 0.122878952070502
 72  -0.997701080578497 0.129076974828219
 73  -1.16467786604253 0.136327718126797
 74  -1.33206771735855 0.144571960902737
 75  -1.49994249732311 0.153740222218967
 76  -1.66837731418149 0.163752493391543
 77  -1.83745034459433  0.17451795433407
 78  -2.00724243389927 0.185934689381025
 79  -2.17783644599888 0.197889423699187
 80  -2.34931633563284 0.210257308534331
 81  -2.52176591738886 0.222901791967214
 82  -2.69526730923181 0.235674621445969
 83  -2.86989903439821 0.248416034825012
 84    -3.045733775233 0.260955207454023
 85  -3.22283578718404 0.273111033242424
 86  -3.40125800232085 0.284693326522924
 87  -3.58103888151303 0.295504537657714
 88  -3.76219911544404 0.305342077189095
 89  -3.94473832981052 0.314001339298006
 90  -4.12863202091716 0.321279503576979
 91  -4.31382903101112 0.326980172524761
 92  -4.50024995249441 0.330918868262036
 93  -4.68778688684414 0.332929363449495
 94  -4.87630489750945 0.332870758027002
 95  -5.06564515021453 0.330635141178914
 96   -5.2556289378832 0.326155614855821
 97  -5.44606034339296 0.319414433098662
 98  -5.63672313595031 0.310451060058375
 99  -5.82736491990545 0.299370046303266
100  -6.01765935975094 0.286348624825653
101   -6.2071363745437 0.271643611066824
102  -6.39506957093821  0.25559667589163
103  -6.58030049049826 0.238638056103668
104  -6.76089872548389 0.221299347199279
105  -6.93250353142419 0.204357728960517
106  -7.08069048518708 0.189581995468618
107   -7.2133675295786 0.176413440579029
108   -7.3333019700083 0.164694708049365
109   -7.4408877808341 0.154429242358661
110  -7.53600883905495 0.145610376736901
111  -7.61842149543077 0.138201210608818
112  -7.68802313735799 0.132129349787095
113  -7.74559143694655 0.127243412238924
114  -7.79670139567713 0.123012304794792
115  -7.86450658924159 0.117558612248672
116  -8.50495929953237 0.0758760791225397
117  -9.15429510645021 0.176504570015785
118  -9.54613027189227 0.495772222372519
119   -9.7266310650425 0.978203947505224
120  -9.62928256747712   1.4894739343651
121  -9.28997994145996  1.88292346889871
122  -8.38488471645603  2.08290922389601
123  -7.49288320869142   1.8415739830583
124   -6.6614747236695  1.42956835021878
125  -5.82407115516053  1.02899605708889
126  -4.94145305949671 0.742629276652146
127  -4.02546986795427  0.60298426071832
128  -3.09538472495314 0.556817985092388
129  -2.07292323581094  0.47894674583839
130  -1.05740904299742 0.398251838300237
131  -0.0690770399893491 0.994638198247491
132  0.876495476472663   1.0186386557001
133   1.82088836409243  1.06244052401588
134   2.76603979642196  1.11762303871182
135   3.71670589356795  1.18490381152878
136   4.65647897998718   1.3212046710108
137     5.568230711752  1.59657399032736
138    6.4789923538208  1.99313990720702
139   7.45372988496705  2.39788420804219
140   8.51098644118485  2.59017143594198
141   9.53912326388993  2.27235995288864
142   9.99751478252752  1.75585285527285
143   10.1649750493652  1.08404558447544
144   10.0261006599543  0.39984801379224
145   9.73272482956761 -0.233015983492543
146   9.46675852486062 -0.882327711810431
147   9.39080043460974 -0.991248493102023
148   9.18848394279118  -1.2140382336585
149   8.95060132783229 -1.39955602704315
150   8.69033423929741 -1.54387060362839
151   8.41889869481174 -1.64900936538685
152   8.14469273027435 -1.71986025503215
153   7.87373823163725 -1.76234293193197
154   7.61018434666837 -1.78248896170317
155   7.35686709669815 -1.78595976859995
156   7.11596674368561  -1.7778469304767
157   6.89044916318064 -1.76271253247989
158   6.68986857422127  -1.7451571996328
159   6.50099683408649  -1.7267115281242
160   6.31790537177549 -1.70829131876551
161   6.13840223984175 -1.69061802211253
162   5.96123791092031  -1.6741872862656
163   5.78565827491212 -1.65934160042609
164   5.61119724769169 -1.64631868414851
165   5.43755191968667 -1.63527990180539
166   5.26450659569655 -1.62632685531541
167   5.09189023179495 -1.61951159725206
168   4.91955572322058 -1.61484351783885
169   4.74737189079855 -1.61229452323974
170    4.5752216700117  -1.6118033680637
171   4.40300254657775 -1.61327961265749
172   4.23062723002627 -1.61660745163013
173   4.05802379080057  -1.6216495184542
174   3.88513513614248 -1.62825068072599
175    3.7119179685731 -1.63624178862712
176   3.53834143297137 -1.64544331554439
177   3.36438563060785  -1.6556688253574
178   3.19004012550083 -1.66672820760609
179   3.01530251927565 -1.67843063383825
180   2.84017713453368 -1.69058720238025
181   2.66467382351305 -1.70301325269717
182   2.48880690539361  -1.7155303434855
183   2.31259422861359 -1.72796790018088
184   2.13605635147788 -1.74016454735344
185   1.95921583345134 -1.75196914929848
186   1.78209662978429 -1.76324158792791
187   1.60472358284123 -1.77385331087195
188   1.42712200427254 -1.78368768467812
189   1.24931734272376  -1.7926401883906
190   1.07133493197771 -1.80061848189359
191  0.893199814230449  -1.8075423814918
192  0.714936632641228 -1.81334377253722
193  0.536569586447561 -1.81796648571121
194  0.358122440906336  -1.8213661600068
195  0.179618583227588 -1.82351011165751
196  0.00108111462295211 -1.82437722431925
197  -0.177467032303295 -1.82395787179396
198   -0.3560029622555 -1.82225388052842
199  -0.534503683849224 -1.81927853505274
200  -0.712945985977304 -1.81505662545543
201  -0.891306335526961 -1.80962453193492
202  -1.06956080745312  -1.8030303374322
203  -1.24768505736646 -1.79533395535445
204   -1.4256543457537 -1.78660725547541
205  -1.60344362179906 -1.77693416729451
206  -1.78102767362831 -1.76641073652832
207  -1.95838135075833 -1.75514510710024
208  -2.13547986371925 -1.74325739813069
209  -2.31229916531048 -1.73087944319178
210  -2.48881641781559 -1.71815435769583
211  -2.66501055074417 -1.70523589997966
212   -2.8408629142298 -1.69228759267614
213  -3.01635803394731 -1.67948157355853
214  -3.19148447401346 -1.66699714938483
215  -3.36623581424837 -1.65501903248302
216  -3.54061174637735 -1.64373524798971
217  -3.71461928846187 -1.63333470986664
218  -3.88827410525899 -1.62400447616949
219  -4.06160190048382  -1.6159267085491
220  -4.23463981119088 -1.60927537722777
221  -4.40743768354312 -1.60421276921758
222  -4.58005905076914 -1.60088587076334
223  -4.75258159532445 -1.59942269826882
224  -4.92509692075377  -1.5999286351773
225  -5.09770970058529 -1.60248278252759
226  -5.27053689022043 -1.60713423413344
227  -5.44370889698069 -1.61389802811199
228  -5.61737654977664 -1.62275027859548
229   -5.7917302844182 -1.63362158791474
230  -5.96704066595192  -1.6463871194738
231  -6.14373170108479 -1.66085038307612
232   -6.3225016641347 -1.67671553037965
233   -6.5045200760862 -1.69354003960306
234  -6.69181670426911 -1.71066037813505
235  -6.88905053111198 -1.72714815693651
236  -7.11135697301245   -1.741807190902
237  -7.35036435133756 -1.75025428220448
238  -7.60221253853523 -1.74789137292418
239   -7.8646734039565 -1.72963669822136
240  -8.13499083535321 -1.68982760609179
241  -8.40916168695585 -1.62240700226451
242  -8.68136530712525 -1.52138780526873
243  -8.94345117204979 -1.38174686018267
244  -9.18444705995969 -1.20123099277072
245  -9.39129060087453 -0.983490907298199
246  -9.46991187062143 -0.876512678696981
247  -9.75459047427072 -0.235731255793007
248  -10.0702260286586 0.388517237660021
249  -10.2353171898467  1.06861316868672
250   -10.095310982829  1.74678359902139
251  -9.65702893177277  2.27880359626829
252  -8.64114194658483  2.62655307303612
253  -7.58312608893396  2.45017832942033
254  -6.61010784405406  2.04184815518383
255  -5.70284790909297  1.63147148526067
256  -4.79573302718125  1.33966269799907
257  -3.85678542593643  1.19004796061062
258  -2.90309510746717  1.11809437403299
259  -1.95570366617459  1.05826450916636
260  -1.01200725158869  1.00507738303945
