// Id               X                Y
  1  -0.559778146104014  7.20935277706798
  2  0.513551417772679  7.20927379974396
  3   1.58729508289605  7.07606535932467
  4   2.62256534528969  6.79172913652713
  5   3.58629585919266  6.37476158403762
  6    4.4750174153806   5.7751079215019
  7   5.20580488397175  5.03099403136145
  8   5.94049987299699  4.30328512262969
  9   6.71850159553319  3.63118492694812
 10   7.45508413737419  2.99394789727482
 11   8.05582114780131  2.25571738458298
 12   8.21927587692535  1.74717455290044
 13   8.17000194610968  1.21497981631775
 14   7.85570362522031 0.786591854735305
 15   7.35918704358219 0.629235844870616
 16    6.8815588317513 0.781745851874141
 17   6.79411170410048 0.838184974176574
 18   6.70446368157713 0.907981575855479
 19   6.61777344088197 0.988498002122389
 20   6.54086996404082   1.0721941280864
 21   6.47468837331248  1.15503606761316
 22   6.41518469413216   1.2392968982123
 23   6.36014293707301  1.32703880534449
 24   6.30808631923537  1.41985722462115
 25   6.25759624523041  1.52072811211264
 26   6.20825399690794  1.63116059261793
 27   6.16034828673155  1.75140799576006
 28   6.11404597051653   1.8814312263329
 29   6.06930814551196  2.02115178565907
 30   6.02585051696586  2.17042694636568
 31   5.98313513993205  2.32904136854338
 32   5.94035919928443  2.49670344606339
 33   5.89646030391503  2.67303659553676
 34   5.85013791959961  2.85756002373653
 35   5.79989280539468  3.04966021356156
 36   5.74408462015818  3.24855748507208
 37   5.68100675130176  3.45327440961658
 38   5.60897526349817  3.66261412825857
 39   5.52642610572375  3.87515639940779
 40   5.43201196154128  4.08927715304598
 41   5.32468833103244  4.30319358021301
 42   5.20377846973088   4.5150320489304
 43   5.06900907027151   4.7229116006958
 44   4.92051269993201  4.92503270194213
 45   4.75879798653127  5.11976011976818
 46   4.58469310966081  5.30569032375796
 47   4.39927127843523  5.48169704425303
 48   4.20376808797859  5.64695253775249
 49   3.99950004887662  5.80092575751783
 50   3.78779167458663  5.94336134360572
 51   3.56991594035493   6.0742448565594
 52   3.34705029799915  6.19376003307961
 53   3.12024818886644  6.30224329922928
 54   2.89042438659311  6.40013968440841
 55   2.65835157927495  6.48796297516623
 56    2.4246652858657  6.56626169657187
 57   2.18987433592593  6.63559147516159
 58   1.95437454818238  6.69649359024966
 59   1.71846376686992  6.74947905561117
 60   1.48235694330479  6.79501734410463
 61   1.24620041681784  6.83352881005258
 62   1.01008492475973  6.86537991634693
 63  0.774057152020322  6.89088048499556
 64  0.538129826999271  6.91028232528375
 65  0.302290499892779  6.92377873029999
 66  0.0665092180076502  6.93150445817543
 67  -0.16925464289254   6.9335359243397
 68  -0.405046110049591  6.92989142554361
 69  -0.64090861776855  6.92053129835234
 70  -0.876877992113154  6.90535798884385
 71   -1.1129761270751  6.88421608164654
 72  -1.34920407052186  6.85689241065899
 73  -1.58553425344163   6.8231164559165
 74  -1.82190162514944  6.78256132524971
 75  -2.05819350971296   6.7348457278834
 76  -2.29423808776623  6.67953746889758
 77  -2.52979154877751  6.61615912212707
 78   -2.7645241685393  6.54419666028865
 79  -2.99800585964449  6.46311190987246
 80  -3.22969212524052  6.37235971681076
 81  -3.45891180774665  6.27141060676318
 82   -3.6848585263842  6.15977944275039
 83  -3.90658816504271  6.03706006803362
 84  -4.12302508862458  5.90296514140869
 85  -4.33297978133432  5.75736934100682
 86  -4.53518015483264  5.60035291967499
 87  -4.72831774055769  5.43224141692081
 88  -4.91110831693128  5.25363642993629
 89  -5.08236432375107  5.06543203075173
 90  -5.24107394941021  4.86881198630357
 91  -5.38647948037413  4.66522458775267
 92  -5.51814593826025  4.45633461102311
 93  -5.63601076903057  4.24395539637279
 94  -5.74040679120276  4.02996759909317
 95  -5.83205377377024  3.81623393161652
 96  -5.91201839392591  3.60452031018289
 97  -5.98164694400744  3.39643273313181
 98  -6.04247887389088  3.19337610562459
 99  -6.09615120022132  2.99653690343641
100  -6.14430373046206  2.80688720626933
101  -6.18849333802768  2.62520429199416
102  -6.23012299223309   2.4520982652612
103  -6.27038873821545  2.28804012462079
104  -6.31024593736976  2.13338382420383
105  -6.35039510156279  1.98837754254902
106  -6.39128773482478  1.85316050554178
107  -6.43315435261184  1.72774031789411
108  -6.47606365421971  1.61193508325012
109   -6.5200508128193  1.50521500438358
110  -6.56547417772733  1.40618839112514
111  -6.61402760038754   1.3112202861529
112  -6.66965367495928  1.21427384400542
113  -6.73601375449334  1.11267747230019
114  -6.81411707004548  1.00956091104732
115  -6.90323425088202 0.910040524807326
116  -7.00512321563696 0.816012229128746
117  -7.44712098520051 0.577442919831655
118  -7.96244496868946 0.621812417661758
119  -8.36030691864266 0.960939334417705
120  -8.51765925086605  1.45891686683674
121  -8.44672977495102   1.9748756791224
122  -7.93658597601522  2.75475126405518
123  -7.25977075198495  3.38842735240655
124  -6.56012103319056  3.99314706210466
125  -5.89504833328718  4.63462839627442
126  -5.25634969561904   5.3098273874506
127   -4.5739733709932  5.93603688070927
128  -3.69262056896542  6.45967901043092
129   -2.7198490544118  6.84827578364035
130  -1.64214232308454  7.05270366494102
131  -0.257738361465262  7.71189154779124
132  0.857365904551561  7.68966298710218
133   1.95957179575273  7.52896928873565
134    3.0257114157795  7.21665932976617
135   4.03157198755728  6.75242622831743
136   4.93914515266803  6.12544459753594
137   5.70882330503304  5.34112778116561
138   6.48807689197997  4.56881245467263
139   7.29922258245193  3.82906838116883
140   8.06901814031053  3.03917168632347
141   8.60941481525212  2.06972067711764
142   8.64172145299531  1.35394920346229
143   8.36431232244371 0.693668742251966
144   7.81501290098394  0.23708158650245
145   7.16493459086247 -0.0477323943608824
146   6.70414768467739 -0.609834219761699
147   6.26080051122776 -0.727898534896788
148   5.89770194978216 -0.730875405625245
149   5.58992199299092 -0.674102256993806
150   5.31650793389086 -0.576449484174608
151   5.06830826241077 -0.445679346289646
152   4.84547816420275 -0.289395638446963
153   4.64727104207884 -0.114094137936903
154   4.47231775970843 0.0747067688420918
155   4.31978572198724 0.270970299441395
156   4.18744616296112 0.470301417114198
157   4.07237958316291 0.670021537252981
158   3.97185887558225 0.868181629216745
159    3.8834515028483  1.06322718386355
160   3.80496741833157  1.25391817246543
161   3.73442744856167  1.43927290906155
162   3.67004771179467  1.61851952139428
163   3.61023072400667  1.79106047871449
164   3.55355966041949  1.95645030594104
165   3.49879350195604  2.11438422382679
166   3.44486068125692  2.26469456968713
167   3.39084876127368  2.40735129085575
168   3.33598813849465  2.54246237498192
169   3.27962894879861  2.67026999203032
170   3.22121216987521  2.79113870785431
171   3.16023792456549   2.9055336152927
172   3.09623550153553  3.01398850021439
173   3.02873996931763  3.11706667774779
174   2.95727921885289  3.21531912385603
175   2.88137314952031  3.30924535608704
176    2.8005442281077  3.39926199693968
177   2.71433653983492  3.48568237132572
178   2.62233919816966  3.56870839928158
179   2.52420973407478  3.64843401154639
180   2.41969372410671  3.72485775972433
181   2.30863814743017  3.79790143720708
182   2.19099741352302  3.86743139485795
183   2.06683232401083  3.93327968137112
184   1.93630318158195  3.99526291783304
185   1.79965874847693  4.05319767724873
186    1.6572228359867  4.10691189707154
187   1.50938010139223  4.15625241495808
188   1.35656227940324  4.20108907318559
189   1.19923569234349  4.24131601869204
190   1.03789053582158   4.2768508814444
191   0.87303215607875  4.30763248858939
192  0.705174328212906  4.33361770067391
193  0.534834403941158  4.35477786406304
194  0.362530110644502  4.37109527700575
195  0.188777736197792  4.38255997557836
196   0.01409141378783  4.38916706512129
197  -0.161016783027969  4.39091475442917
198  -0.336036220575377  4.38780319308089
199  -0.510456839747304  4.37983416453285
200  -0.683768319349387  4.36701164560457
201  -0.855459540845026  4.34934320292362
202  -1.02501862910945  4.32684215479329
203  -1.19193384709717  4.29953037903517
204   -1.3556956230309  4.26744159047098
205  -1.51579998053659  4.23062484378952
206  -1.67175361634377  4.18914793836224
207  -1.82308081564747  4.14310031360292
208  -1.96933229910403  4.09259493300293
209  -2.11009594451201  4.03776857336912
210  -2.24500910995053  3.97877988089517
211   -2.3737720007547  3.91580455327354
212  -2.49616118322515  3.84902709156223
213  -2.61204199240455  3.77862877824906
214  -2.72137828372314  3.70477191888434
215   -2.8242378485243  3.62758095405564
216  -2.92079197848911  3.54712177872837
217  -3.01130822547031  3.46338139426465
218   -3.0961363793062  3.37625068134154
219  -3.17568896495423   3.2855133901954
220  -3.25041889733442  3.19084419399598
221  -3.32079800169459  3.09181774061764
222  -3.38730058401504  2.98792912254463
223  -3.45039587916721  2.87862429590091
224  -3.51055193826796  2.76333712004037
225  -3.56825151464082  2.64152837592056
226  -3.62401824127017  2.51272183624792
227  -3.67844954247858  2.37653342076379
228  -3.73225191042312  2.23269145961435
229  -3.78627464538544  2.08104850984851
230  -3.84153963835979  1.92158733628182
231    -3.899266650755  1.75442513039789
232  -3.96089518706233  1.57982075035008
233   -4.0281050540218  1.39819000260829
234  -4.10283789616738   1.2101341905971
235  -4.18732132211043  1.01648781584604
236  -4.28409537153473  0.81839305740171
237   -4.3960366187809 0.617412751882226
238  -4.52636212927969 0.415704441819931
239  -4.67854517571266 0.216313606648166
240  -4.85587080500037 0.0237476419588925
241  -5.05992131183869 -0.155050755155087
242  -5.28937147942482 -0.31136754081541
243  -5.54508634863629 -0.438751439354834
244  -5.83551827553991 -0.531403121411429
245  -6.17734286343758 -0.575786427912982
246  -6.59699520224629 -0.531748194981405
247  -7.14847952742844 -0.0596805418236567
248   -7.8416900569149 0.0898941103449057
249   -8.4708883977756 0.427343714515795
250  -8.86644298886856  1.02517223965786
251  -8.94804705747085  1.73865364388548
252  -8.54868271605702  2.77535719786647
253  -7.82748019542047  3.61527947376325
254  -7.02852562145841  4.37696496983539
255  -6.23052908497319  5.13928283322642
256  -5.42410883863338  5.89579673876515
257  -4.52418957210811  6.54545800184917
258  -3.53128743745095  7.05076366223288
259  -2.46930831314049  7.39992722747758
260  -1.36589143787988  7.57922164542031
