// Id               X                Y
  1  -0.104254874429376  1.75432969520725
  2  0.966247508488145  1.72145560078108
  3   2.03290062777342  1.60563077121903
  4   3.08539091301286   1.5780876232129
  5   4.08012058253983  1.59862323186218
  6   5.03703037750298  1.63242179447867
  7   5.98078157661777   1.6463847027048
  8   6.90836733644819  1.57893951355696
  9    7.7934108932687  1.34399500034647
 10   8.55295688124373  0.85790571711624
 11   9.04819151569464 0.102022874502326
 12    9.1025033907565 -0.397396327852635
 13   8.95421367648143 -0.88951865080899
 14   8.58118843625094 -1.25864184145044
 15   8.07737023237776 -1.35223544213697
 16   7.46224344945783 -0.982604062790125
 17   6.94300870691719 -0.577706990116716
 18   6.86032553961429 -0.532735084345244
 19   6.78999997298722 -0.497558607866807
 20   6.72432751848548 -0.466882320692317
 21   6.65969219927104 -0.438414493053395
 22   6.59221392527007 -0.410190672625633
 23   6.51921624528029 -0.381008962759237
 24   6.43899894563891 -0.350124800877906
 25   6.35067168739206 -0.317047053251281
 26   6.25414281295036 -0.281458105763285
 27   6.15002156564391 -0.243175059697455
 28   6.03934624149419 -0.202118334092259
 29   5.92326189807934 -0.158291259797263
 30   5.80279515352837 -0.111772448335212
 31   5.67875973671208 -0.0627105395603808
 32   5.55174821155577 -0.011312622006488
 33   5.42216126515408 0.042173559168868
 34   5.29024738752097 0.0974786968046226
 35   5.15614179913639 0.154327822516787
 36   5.01990076126593 0.212450913567834
 37   4.88153003720155 0.271588225753949
 38   4.74100720599854 0.331491558038239
 39   4.59829801311836 0.391923011284197
 40   4.45336734976798 0.452652633317099
 41   4.30618579884085 0.513455937109728
 42   4.15673288539422 0.574111850576372
 43   4.00499817388754  0.63440132013964
 44   3.85098118795439 0.694106577653268
 45   3.69469086689675 0.753010973420914
 46   3.53614499870383 0.810899242014538
 47   3.37536984011957 0.867558070651529
 48   3.21239997491663 0.922776860418528
 49   3.04727837075494 0.976348596283568
 50   2.88005655750733  1.02807076639517
 51   2.71079484671811  1.07774629184336
 52   2.53956252630257  1.12518444389543
 53   2.36643798483792  1.17020173675439
 54   2.19150873883493  1.21262279070497
 55   2.01487135105877  1.25228116396911
 56   1.83663123768063  1.28902015262981
 57   1.65690236756436  1.32269355748351
 58   1.47580685960654   1.3531664153947
 59   1.29347448500123  1.38031569122168
 60   1.11004208154172  1.40403092504451
 61  0.925652887192036  1.42421482847381
 62  0.740455800442438  1.44078382333827
 63  0.554604575472559  1.45366851603353
 64  0.368256960831487  1.46281410120465
 65  0.181573791106603  1.46818068914521
 66  -0.00528195820816372  1.46974355224373
 67  -0.192146141800359  1.46749328691862
 68  -0.378854430266668  1.46143588869779
 69  -0.565243298886134  1.45159273937397
 70  -0.751151007777929  1.43800050646606
 71  -0.936418561927334  1.42071095650854
 72  -1.12089063990546   1.3997906849384
 73  -1.30441648061548  1.37532076650627
 74   -1.4868507180142  1.34739633114478
 75  -1.66805415440363  1.31612607100552
 76  -1.84789446346194  1.28163168483892
 77    -2.026246814596  1.24404726595125
 78  -2.20299441040684  1.20351863956624
 79  -2.37802892915631  1.16020265453533
 80   -2.5512508644238  1.11426643306288
 81  -2.72256975528284   1.0658865806587
 82  -2.89190430330749  1.01524835728592
 83  -3.05918237881672 0.962544810214211
 84  -3.22434092924703  0.90797587018476
 85   -3.3873258180733 0.851747416064624
 86  -3.54809164241322 0.794070320212781
 87  -3.70660159774136 0.735159498240522
 88  -3.86282747135008 0.675233003407507
 89  -4.01674983969201 0.614511227672541
 90  -4.16835850123283 0.553216297456561
 91  -4.31765307681249 0.491571779469263
 92  -4.46464353950854 0.429802833614832
 93  -4.60935019710421 0.368136952335525
 94  -4.75180237184635 0.306805385113295
 95  -4.89203476725413 0.246045229387972
 96   -5.0300803657086 0.186101939371005
 97  -5.16595873734242  0.12723164756508
 98  -5.29965887878515 0.0697022512516466
 99  -5.43111608348145 0.0137918169288163
100  -5.56018279220161 -0.0402172733188164
101  -5.68659392149449 -0.0920495702290482
102  -5.80992825071045 -0.141453042851744
103  -5.92957041154274 -0.188218457082674
104  -6.04468587985986  -0.2321970286894
105  -6.15423773529026 -0.273311801782444
106  -6.25709348372412 -0.311563319335804
107  -6.35225918211417 -0.34703907395124
108  -6.43919530450058 -0.379932398169257
109  -6.51806061330895 -0.410577367363148
110  -6.58979289219735 -0.439465327259969
111   -6.6560961989175 -0.467362813218415
112   -6.7196323995245 -0.495431891878545
113   -6.7841947685493 -0.525626650194973
114  -6.85331532258805 -0.560127900079672
115  -6.93477447137012 -0.604198253244634
116  -7.45577496067638 -1.00429336850215
117  -8.07674543588382 -1.36336789952581
118  -8.58091002918679 -1.25395812739732
119  -8.94076198866256 -0.864675330538439
120  -9.06283266440128 -0.362821022892873
121  -8.98031916774745 0.133666664006683
122  -8.44575764793415 0.863801379108405
123  -7.66603037280312  1.32001905493189
124  -6.77149640121638  1.53130670281204
125  -5.83742057344516   1.5840490805312
126  -4.88518675421522  1.56290933186887
127  -3.91684545410935   1.5261898361345
128  -2.94719762884922  1.50991504007444
129  -1.99689959789942  1.54260838343335
130  -1.04827172106687  1.62122232459832
131  0.286366353342938  2.18544350617566
132   1.30520217011347  2.19342302856824
133   2.23164261014953   2.1902977561681
134   3.16510610707428  2.19555302408735
135   4.11532051274512  2.21959369484844
136   5.10159608195798  2.24958706188345
137   6.15356523660988  2.24213432049196
138   7.21973166646236  2.11562518298237
139   8.25134617647515  1.76327634035697
140   9.11963843735822  1.08367796415358
141    9.5840163585942 0.084853203675839
142   9.56238194851524 -0.626190192072335
143   9.28171621580616 -1.27632452629169
144   8.79659964335431 -1.78394343335017
145   8.18429799469994  -2.1216801554829
146   7.48285672884968 -2.30494688707634
147   7.34538821686866  -2.3187699302809
148     7.178340143613 -2.32636091747321
149   7.01054700908112 -2.32445652509804
150   6.84303174216082 -2.31365102363931
151   6.67645576755761 -2.29469403934446
152   6.51150306821334 -2.26846443621863
153   6.34864473473117  -2.2359017026115
154   6.18814630981991 -2.19793903583101
155   6.03010017651895 -2.15545165509841
156   5.87444868806718 -2.10921680051929
157   5.72101551424179 -2.05989128803591
158   5.56955218748322 -2.00801178635873
159   5.41978695979657 -1.95401313937799
160   5.27146011828522 -1.89825371776089
161   5.12434110869324 -1.84103890763104
162   4.97823210539714 -1.78263907851585
163   4.83296456398996 -1.72330189608336
164   4.68839338792342 -1.66326013945383
165   4.54439111191749 -1.60273631358167
166   4.40084306200054 -1.54194511090383
167   4.25764373179369 -1.48109450792956
168   4.11469431791367 -1.42038606812342
169   3.97190125298854 -1.36001485733036
170   3.82917553967962 -1.30016924263794
171   3.68643267782346 -1.24103073187367
172   3.54359298174389 -1.18277392113158
173    3.4005821071635 -1.12556655584764
174   3.25733164410651 -1.06956967678418
175   3.11377967591997  -1.0149378104181
176   2.96987124621397 -0.961819165710877
177   2.82555870885283 -0.910355808599004
178   2.68080195868025 -0.860683796379438
179   2.53556855312943 -0.812933263493729
180   2.38983373964973 -0.767228456983954
181   2.24358040379032 -0.723687724166579
182   2.09679895025273 -0.682423457405021
183   1.94948712598422 -0.64354200192091
184   1.80164979145013 -0.607143532912776
185   1.65329864404959 -0.573321908217091
186    1.5044518963036 -0.54216450256607
187   1.35513391082069 -0.513752029268768
188   1.20537479393171 -0.488158354896533
189   1.05520995008107 -0.465450312289572
190  0.904679599408827 -0.44568751690685
191   0.75382826135061 -0.428922191205656
192  0.602704207460383 -0.415199001353879
193  0.451358886996421 -0.40455491014507
194  0.299846329096932 -0.397019049505976
195  0.148222525608834 -0.392612615461599
196  -0.00345520117470772 -0.391348787859411
197  -0.155128841462418 -0.39323267655789
198  -0.306740347084322 -0.398261295163176
199  -0.458232282200286 -0.406423562758109
200  -0.609548470989602 -0.417700333420209
201  -0.760634637730119 -0.432064452676747
202  -0.911439034735137 -0.449480839406718
203  -1.06191305372043 -0.469906591077602
204  -1.21201181632453 -0.493291109609873
205  -1.36169473970652 -0.519576244598964
206  -1.51092607340076 -0.548696450102267
207  -1.65967540391727 -0.580578950718635
208  -1.80791812393044 -0.615143912256981
209  -1.95563586326468 -0.652304611901861
210  -2.10281687919786 -0.69196760243681
211  -2.24945640374901 -0.734032864760967
212   -2.3955569454286 -0.778393942627901
213  -2.54112854220829 -0.824938053235493
214  -2.68618896101061 -0.873546167052013
215  -2.83076383672792 -0.924093050171382
216   -2.9748867407643 -0.976447262812526
217  -3.11859916588048 -1.03047110869226
218  -3.26195041179875 -1.08602053253307
219  -3.40499735642172 -1.14294496756887
220  -3.54780410310434  -1.2010871422045
221  -3.69044150801539 -1.26028286487044
222  -3.83298661541204 -1.32036081744668
223  -3.97552206302566  -1.3811423969357
224  -4.11813556168653 -1.44244164671976
225   -4.2609195961581 -1.50406530460646
226  -4.40397152871161 -1.56581295736329
227  -4.54739430600819 -1.62747722493115
228  -4.69129797066983 -1.68884380339642
229  -4.83580216313409 -1.74969107735399
230  -4.98103975613186 -1.80978887361306
231  -5.12716164380818 -1.86889575743667
232  -5.27434237797504   -1.926754056529
233  -5.42278557587077 -1.98308153246039
234  -5.57272653520392 -2.03755842581733
235  -5.72442731303948 -2.08980883392349
236  -5.87815792492781 -2.13937690066345
237  -6.03415985842007 -2.18570200355334
238  -6.19259766765286 -2.22810220286131
239  -6.35351445340133 -2.26577638479587
240  -6.51680219242143 -2.29782863667801
241   -6.6821788118634 -2.32330904244718
242    -6.849156524874 -2.34126588626303
243  -7.01703601178249 -2.35081242951084
244  -7.18513761022478 -2.35119269704786
245  -7.35239967332116 -2.34181239965023
246  -7.49076021028434 -2.32619300272318
247  -8.19040123288638   -2.130992203817
248  -8.79497312781633 -1.77831263459735
249    -9.264774996674  -1.2555215915735
250  -9.52236642179755 -0.594208504166116
251  -9.51563401481015 0.119357434503807
252  -9.00893613967559   1.1008328169473
253  -8.11440594149331  1.74996035417863
254  -7.07134264372257  2.07462185462474
255  -6.00008521223045  2.18259556006724
256  -4.94189413180746  2.18083228468381
257  -3.90622721603722  2.14750830566964
258  -2.88343789008639  2.12737965909649
259  -1.83548515595922  2.13489939034634
260  -0.772672111912916  2.16020962640186
