// Id               X                Y
  1  -0.00229340749389833 -0.568743024229236
  2  0.966173244883671 -0.488301045017259
  3   1.89674820995846  -0.2563009221395
  4   2.76979400131007 0.099987889495923
  5   3.58294833020914 0.545036860986201
  6   4.34977607929676  1.03890934848019
  7   5.09742603539513  1.53772931161802
  8   5.86072108653981  1.99106366379413
  9    6.6732939886307  2.33284257806341
 10   7.54047262492361  2.43818928602674
 11   8.38318398401104  2.19238078720572
 12   8.73087954312422  1.86421252233225
 13   8.92955239758308  1.41684533305809
 14   8.89811821552199 0.924038701827872
 15   8.61826573278282 0.523481912951872
 16   7.97639489044441 0.313487963938586
 17   7.35846031403363 0.193960603646082
 18    7.2799296973599 0.172507263180681
 19   7.22338600156397 0.156054199961022
 20   7.08814169373676 0.113104112763564
 21   6.94440705355702 0.0617987045750741
 22   6.81973756919267 0.0128700587393259
 23   6.69739745669193 -0.0386010925450967
 24   6.56849841921033 -0.0956923397035701
 25   6.43229763529684 -0.158020612114452
 26   6.29051223688693 -0.22367264730178
 27     6.144777049285  -0.2905310572601
 28   5.99639172799717 -0.35669187910078
 29   5.84631544412418 -0.42066271831372
 30   5.69519942309979 -0.481411014642989
 31   5.54344428755783 -0.538309554782562
 32   5.39126112628558 -0.591041371502691
 33   5.23873059243036 -0.639502977499498
 34   5.08585290443505 -0.683725641642459
 35   4.93258093821846 -0.723820491686241
 36    4.7788461531078 -0.759941592806392
 37   4.62457293533295 -0.792264092148591
 38   4.46969010087615 -0.820971229005504
 39   4.31413513924677 -0.846248245261524
 40   4.15785774993683 -0.868279587800213
 41   4.00082804480946 -0.887247608881892
 42   3.84304118402734 -0.903333357682523
 43   3.68451667256201 -0.916718500070325
 44   3.52529632112347 -0.92758710393164
 45   3.36544131023235 -0.936126939547276
 46   3.20502855192117 -0.942530121109292
 47   3.04414655301678 -0.946993026480535
 48   2.88289113890677 -0.949715521990496
 49   2.72136133414828 -0.950899601166163
 50   2.55965564337414 -0.950747595683866
 51   2.39786887760191 -0.949460136893114
 52   2.23608960291217 -0.947234039804223
 53   2.07439824227337 -0.944260257083376
 54   1.91286585815544 -0.940722016194666
 55   1.75155366254008 -0.936793214408491
 56   1.59051330068377 -0.932637106446572
 57   1.42978785147387 -0.928405277695145
 58   1.26941320226877 -0.924236853136233
 59   1.10941901387891 -0.92025785727094
 60  0.949828128751876 -0.916580632530586
 61   0.79065339148949 -0.913303261005591
 62  0.631891719785163 -0.910509010906884
 63  0.473516711684206 -0.908265903925522
 64  0.315472447011224 -0.906626516774085
 65  0.157671620725306 -0.90562806148909
 66  2.23141528501877e-07 -0.905292664440814
 67  -0.157671178538426 -0.905627661647307
 68  -0.315472018608257 -0.906625723500267
 69  -0.473516310895785 -0.908264730144974
 70  -0.631891366339968 -0.910507476236036
 71  -0.790653111672385 -0.91330139194535
 72  -0.949827955126297 -0.916578462636147
 73  -1.10941898446097 -0.920255427283128
 74  -1.26941335955935 -0.924234211083782
 75  -1.42978824161279 -0.928402478985549
 76  -1.59051397280404 -0.932634213953341
 77  -1.75155466826102 -0.936790298541992
 78   -1.9128672511169 -0.940719154921394
 79  -2.07440007766007 -0.944257535840666
 80   -2.2360919369866 -0.947231551243535
 81  -2.39787176732502 -0.949457980374071
 82  -2.55965914618021 -0.950745876431749
 83  -2.72136550792367 -0.950898429001518
 84  -2.88289604206241 -0.949715009545554
 85  -3.04415224454842 -0.946993286841222
 86  -3.20503509100697 -0.94253126487225
 87  -3.36544875523504 -0.936129071349946
 88  -3.52530472713708 -0.927590318632098
 89  -3.68452608810343 -0.916722878802751
 90   -3.8430516451444 -0.903338964245956
 91  -4.00083957006111 -0.887254486626917
 92  -4.15787033005402 -0.868287758066811
 93  -4.31414873433917 -0.846257706443411
 94   -4.4697046239811 -0.82098195940564
 95  -4.62458826228293 -0.792276051032249
 96  -4.77886207459288 -0.759954735135311
 97  -4.93259722342191 -0.723834764070541
 98  -5.08586923440072 -0.683741009615736
 99  -5.23874676356188 -0.639519384711632
100  -5.39127698225738 -0.591058766144163
101  -5.54345998197877 -0.538327812094725
102  -5.69521517784758 -0.481430024369907
103  -5.84633132010069 -0.420682504398435
104  -5.99640744754227 -0.356712719504861
105  -6.14479137631406 -0.290553794954267
106   -6.2905236097719 -0.22369838931534
107  -6.43230361224626 -0.158050851585288
108  -6.56849699905299 -0.0957281359822655
109  -6.69738705577391 -0.0386429267473213
110  -6.81971767387524 0.012822526244161
111  -6.94437765467351 0.0617461840708007
112  -7.08810081841652 0.113046852487147
113  -7.22332981670133 0.155992476554945
114  -7.27987217187564 0.172445595210178
115  -7.35840379448237 0.193899970973288
116  -7.97632504174036 0.313436693177417
117  -8.61818762774123 0.523442561284291
118  -8.89803135294715 0.923997979191765
119  -8.92946406608884  1.41679916361444
120  -8.73079710401565  1.86416450604859
121  -8.38311148480932    2.192339505152
122  -7.54041562298686     2.43819100293
123  -6.67323054101401  2.33292094317142
124  -5.86062131982423  1.99123193077573
125  -5.09727067487489  1.53798944537085
126  -4.34955967520843  1.03923784434283
127  -3.58266502469379 0.545402331405723
128  -2.76941110662817  0.10034220090431
129   -1.8961201712766 -0.255994978823468
130  -0.964890039280405 -0.487931080327706
131  -0.000773042787650665 0.0512798408124218
132   0.90054978728232 0.128601978220573
133   1.77755164881052 0.352795112843502
134   2.61464827392023 0.701406175701396
135    3.4109819736324  1.14244457806812
136   4.18263585488077  1.63820336533897
137   4.96250634384774  2.14505622432995
138   5.80324328690216  2.60791223633118
139   6.80303346416535  2.94026100578973
140   7.88393065327735  2.93569756439851
141   8.83869300702299  2.43762312745405
142   9.24418841202351  1.87838774429322
143   9.42185431156096  1.22927719600046
144    9.3929624435248 0.595529970167607
145   9.24156358186645 0.0668510511900821
146   8.92773826836423 -0.549416927270621
147   8.92638699907452 -0.551442117757335
148   8.74076098599883 -0.800092429333322
149   8.53450111302821 -1.02517948529651
150   8.37457923867207 -1.17388438554414
151   8.22421205236681 -1.29804694315915
152   8.06035181606763 -1.41944850890016
153   7.89249039394661 -1.53161391752181
154   7.72699122426254  -1.6323334158835
155   7.56438800223325   -1.723405842557
156   7.40325317277422 -1.80718881791792
157     7.242270183342 -1.88540768178986
158   7.08037042688773 -1.95926198618501
159   6.91672377055557 -2.02955864626956
160   6.75075006115165 -2.09679703128946
161   6.58210697651672 -2.16124110552497
162    6.4106517970768 -2.22298502041261
163   6.23638687601858 -2.28201125190991
164   6.05940661936112 -2.33823716569223
165   5.87986106711946 -2.39154776690046
166   5.69792943114461  -2.4418194795527
167   5.51380805678426 -2.48893542123125
168   5.32770314157656 -2.53279640131074
169   5.13983107645515  -2.5733277237887
170   4.95041871287099 -2.61048433725155
171    4.7596973804375 -2.64425542652485
172   4.56789810906354 -2.67466662657746
173   4.37524965588083 -2.70178000015936
174   4.18197567079305 -2.72569275968777
175   3.98829105420674 -2.74653483773754
176   3.79439797616338 -2.76446541082482
177   3.60048208272581 -2.77966855652308
178   3.40670921742856 -2.79234830082769
179   3.21322291140315 -2.80272333675929
180   3.02014276311829  -2.8110216934422
181   2.82756373163605  -2.8174756032384
182   2.63555626467254 -2.82231676533694
183   2.44416710217202  -2.8257721446354
184   2.25342052279104 -2.82806038444561
185   2.06331975047444 -2.82938885726481
186   1.87384824115359 -2.82995133525774
187   1.68497069604273 -2.82992623502041
188    1.4966339646683 -2.82947538080354
189   1.30876847690032 -2.82874323202872
190   1.12129124188334 -2.82785652250642
191  0.934111378260793 -2.82692424599192
192   0.74713832303945 -2.82603789228928
193   0.56029147438553 -2.82527180668176
194   0.37350869566247 -2.82468354086724
195  0.186750640325541 -2.82431410201271
196  -1.25160004954506e-06  -2.8241880753633
197  -0.186753143080961 -2.82431365810968
198  -0.373511196119326 -2.82468266182966
199  -0.56029396812188 -2.82527051001878
200  -0.747140802305874 -2.82603620421594
201  -0.934113832251482 -2.82692220141547
202  -1.12129365787495 -2.82785416504994
203  -1.30877084188223 -2.82874061408317
204  -1.49663626708053 -2.82947256357482
205   -1.6849729273877 -2.82992328852165
206  -1.87385039744191 -2.82994833819278
207  -2.06332183361279 -2.82938589675144
208   -2.2534225420666 -2.82805755553105
209  -2.44416907593987 -2.82576954955745
210  -2.63555822227249 -2.82231451248446
211  -2.82756571545836 -2.81747380576767
212  -3.02014483066223 -2.81102046751597
213  -3.21322513705105 -2.80272279939801
214  -3.40671169362161  -2.7923485673989
215  -3.60048492000469 -2.77966973795704
216   -3.7944013016586 -2.76446761071176
217  -3.98829500773884 -2.74653814958097
218   -4.1819803984996  -2.7256972646289
219  -4.37525530017396 -2.70178576568316
220  -4.56790479657767 -2.67467370645118
221  -4.75970520540235 -2.64426386273187
222  -4.95042772363241 -2.61049416306474
223  -5.13984125513505 -2.57333896970149
224  -5.32771440038778 -2.53280909924476
225  -5.51382021513529 -2.48894961373493
226   -5.6979422575832 -2.44183521374031
227  -5.87987422312469 -2.39156511164259
228  -6.05941974079822 -2.33825619144142
229   -6.2363994012395 -2.28203208439714
230  -6.41066306881215  -2.2230078159852
231  -6.58211602419718 -2.16126613431242
232  -6.75075588060544 -2.09682459014891
233  -6.91672558863224 -2.02958895066902
234   -7.0803679002292 -1.95929506349093
235  -7.24226400782634 -1.88544304580786
236  -7.40324441299664 -1.80722568183102
237  -7.56437856902331 -1.72344278935651
238   -7.7269825265754  -1.6323689854938
239  -7.89248333410075  -1.5316465850416
240  -8.06034617041992 -1.41947711819742
241  -8.22420705015606 -1.29807064446662
242  -8.37457547077201 -1.17390145481164
243  -8.53449859616293 -1.02518719047172
244  -8.74074574264979 -0.800099816951411
245  -8.92635644393176 -0.551453544969473
246  -8.92770767828024 -0.549428288241607
247  -9.24150986981405 0.0668445394809494
248  -9.39288886878489 0.595517704379274
249  -9.42176741584323  1.22921802394466
250  -9.24411005890851  1.87831810097694
251  -8.83863633101195   2.4375576539217
252  -7.88391407421856  2.93567755536865
253  -6.80303303382079  2.94032723038429
254  -5.80325421965457  2.60809182240713
255  -4.96254001456297   2.1453618862148
256  -4.18266561962706  1.63860339178805
257  -3.41103080494955  1.14291042837744
258  -2.61475939495717 0.701895371972265
259  -1.77778149407227 0.353233713559195
260  -0.900930244385868 0.128851638634026
