// Id               X                Y
  1  -0.0442685291438913  3.04812505105553
  2  0.905643105883117  2.99198807607462
  3   1.83366838559345  2.84180026702368
  4   2.74474455282787  2.60488666030924
  5   3.66734490986868   2.4640749731918
  6   4.59808647026843  2.51560690020115
  7   5.50377883986081  2.74039409042195
  8   6.39453047439603  3.01071249305589
  9   7.31513888450018  3.10567361809395
 10   8.15390705710138  2.72488168524141
 11    8.3755113293769  1.84163941238564
 12   8.11559407362494  1.39242890135657
 13   7.67450912763744  1.11553186886235
 14   7.15492419862974  1.02010174046154
 15   6.61702711194606  1.06343488713399
 16   6.09293285393336  1.18469876559289
 17   5.99530471657853  1.20887894090306
 18   5.89245321696395  1.23496993654987
 19   5.78631557417716  1.26274117711619
 20   5.67764309984436  1.29207143282867
 21   5.56699838030582  1.32301731936126
 22   5.45479030555209  1.35551109612717
 23   5.34136185057295  1.38955511173847
 24   5.22696806315422  1.42507751028294
 25   5.11181474636105  1.46201886444193
 26   4.99605321413988  1.50028194468931
 27   4.87979810355619  1.53976351700171
 28   4.76312948242022  1.58034139473715
 29   4.64610174917428  1.62188579054183
 30   4.52874766284021  1.66425865663683
 31   4.41108324818535  1.70731759004056
 32    4.2931114432525   1.7509176836808
 33   4.17482548641201  1.79491389079969
 34   4.05621132985446  1.83916178051732
 35   3.93725018250445  1.88351951910121
 36   3.81792024034932  1.92784842769117
 37   3.69819813867607  1.97201346054998
 38   3.57806044028818  2.01588437134806
 39   3.45748439864663  2.05933544083774
 40   3.33644883377087  2.10224595358847
 41    3.2149348583629  2.14450068652698
 42   3.09292609549427  2.18598931379928
 43   2.97040923009863  2.22660706637319
 44   2.84737415791893  2.26625451894108
 45   2.72381401549017   2.3048372157013
 46   2.59972545769896  2.34226628400916
 47   2.47510845584812  2.37845771343243
 48    2.3499663331084   2.4133325120974
 49   2.22430574928074  2.44681687401447
 50   2.09813640899484  2.47884143226807
 51   1.97147110066743  2.50934181137733
 52   1.84432544293221  2.53825816842294
 53   1.71671768701147  2.56553493423437
 54   1.58866865668496  2.59112125095478
 55   1.46020141796207  2.61497018948032
 56   1.33134118911064  2.63703910107508
 57   1.20211513784092  2.65728948601389
 58   1.07255213094685  2.67568649052094
 59   0.94268264647518  2.69219944799025
 60  0.812538507750247  2.70680123590397
 61  0.682152741187679  2.71946842044306
 62  0.551559416639247  2.73018139243289
 63  0.420793429014301  2.73892377415565
 64  0.289890382141399  2.74568297349194
 65  0.158886391388641  2.75044973439114
 66  0.0278179322024346  2.75321812748141
 67  -0.103278312068788  2.75398589093033
 68  -0.234365617988729  2.75275383052704
 69  -0.365407371749781  2.74952636066452
 70  -0.496367230507532  2.74431125630869
 71  -0.627209267381552  2.73711952004194
 72  -0.757898154173941  2.72796590276338
 73  -0.888399287913781  2.71686832744378
 74  -1.01867897914427  2.70384839064709
 75  -1.14870461827471  2.68893133965782
 76  -1.27844480155245  2.67214579603302
 77  -1.40786957427344  2.65352444046968
 78  -1.53695052956269  2.63310349702148
 79  -1.66566101704519  2.61092311257762
 80  -1.79397635252413  2.58702761321396
 81  -1.92187389267534  2.56146505097876
 82  -2.04933333267102  2.53428798037147
 83  -2.17633678846481  2.50555310167125
 84  -2.30286894997462  2.47532137406055
 85   -2.4289173415123  2.44365858295423
 86  -2.55447228749794  2.41063474442417
 87  -2.67952716478712  2.37632477888674
 88  -2.80407845940976   2.3408084653364
 89  -2.92812570676754  2.30417014800397
 90  -3.05167169833637  2.26649950070802
 91  -3.17472225019866  2.22789094634722
 92  -3.29728614551274  2.18844389545869
 93  -3.41937504524177  2.14826306759177
 94  -3.54100296748114  2.10745775155791
 95  -3.66218607963539  2.06614233827306
 96  -3.78294206895794   2.0244359188218
 97  -3.90328929096571  1.98246166071173
 98  -4.02324607872179  1.94034710250448
 99  -4.14282936118475  1.89822298969289
100  -4.26205326260315  1.85622267363901
101  -4.38092748270207  1.81448157726409
102  -4.49945489537601  1.77313524611982
103  -4.61762913993648  1.73231831013017
104  -4.73543153709656  1.69216263485663
105  -4.85282720340027  1.65279447953114
106  -4.96976090772224  1.61433254819963
107  -5.08615180105873   1.5768848168405
108  -5.20188718928744  1.54054515873084
109  -5.31681550143047  1.50539114961558
110  -5.43073752661914  1.47148144685531
111  -5.54339597106851  1.43885480990402
112  -5.65446273568672  1.40753229243692
113  -5.76352159608963  1.37752238820567
114  -5.87003862289926  1.34883351027178
115  -5.97325564854773  1.32151149229023
116  -6.07121940459374  1.29590265307532
117  -6.59506003148389  1.16210919068819
118  -7.13427965491282    1.094425110628
119  -7.66089883073933  1.15412969135884
120  -8.12637890533049  1.38856343818735
121  -8.43623192235844  1.80416060773871
122  -8.33314253285423  2.70807769642823
123   -7.5352369814579  3.16629175183344
124  -6.61103839828222  3.11263792368469
125  -5.71871841300122  2.84677534327643
126  -4.81815711267379  2.60036416886003
127  -3.88965595077866   2.5128234857921
128  -2.96212593591427  2.61760667898991
129  -2.05081595369464   2.8342843167406
130  -1.04130879633335  2.96290393759405
131  -0.0997718574917046  3.64064007243047
132  0.866612117383546  3.59847624156722
133   1.82028830211836  3.44829869296729
134   2.75266831221392  3.21551448170639
135   3.69533936365139  3.07412065069614
136   4.64705734247868  3.12616060667947
137    5.5960352269502  3.34817457982101
138   6.62211895630076  3.58248044185506
139   7.69223637927349  3.58010323376423
140   8.62988943696344  3.06821002562338
141   8.89653430023379  2.03438433572058
142   8.74045199994071  1.36777670244629
143   8.27603906076351 0.865370187496555
144   7.65469446392246 0.586937300825848
145   6.98574859189386 0.510513279886551
146   6.83699157188658 -0.0372323737118092
147   6.55463627884107 -0.0946432062294218
148   6.29541765057052 -0.123726503733227
149   6.05479784329292 -0.129049777874397
150   5.83150771667896 -0.117273388087828
151   5.62377846046824 -0.0937788611083847
152   5.42956884763285 -0.0623179516255277
153   5.24690314039861 -0.0254272213537927
154   5.07402524458881 0.015184609713325
155   4.90943988931536 0.0583569290777839
156   4.75190073094275 0.103287808848796
157   4.60037823164478 0.149409020402324
158   4.45402318248686 0.196304876309601
159   4.31213277448998 0.243659948426317
160   4.17412164250109 0.291225584640115
161   4.03949824016155 0.338798508707778
162   3.90784603408772 0.386207149337184
163   3.77880874175027 0.433302885729028
164   3.65207883338811 0.479954407544016
165   3.52738859925718 0.526044033725454
166    3.4045032032204 0.571465266411884
167   3.28321526708843 0.616121114277719
168    3.1633406294049  0.65992289202248
169   3.04471499941958 0.702789321017457
170   2.92719129173716 0.744645815810028
171    2.8106374840805  0.78542388975871
172   2.69493487780342 0.825060641536441
173    2.5799766640414 0.863498294948331
174   2.46566672539714 0.900683784025115
175   2.35191862230224 0.936568373919985
176   2.23865472330996 0.971107310985183
177   2.12580544762038  1.00425950551661
178   2.01330859480468  1.03598724127448
179   1.90110874558513  1.06625591219677
180   1.78915672102271   1.0950337870062
181   1.67740908693334  1.12229179605394
182   1.56582769544421  1.14800334419089
183   1.45437925782345  1.17214414536865
184   1.34303494361227  1.19469207611395
185   1.23177000201455  1.21562705039376
186   1.12056340068341  1.23493090933047
187   1.00939747992632  1.25258732746382
188  0.898257620831205  1.26858173363269
189  0.787131924646395  1.28290124197415
190  0.676010901812661  1.29553459640688
191  0.564887168804595  1.30647212323644
192  0.453755151953202  1.31570569235253
193  0.342610797610808  1.32322868752587
194  0.231451286950567  1.32903598106222
195  0.120274754450533  1.33312391661617
196  0.00908000926102829  1.33549029663437
197  -0.102133741244948  1.33613437418653
198  -0.213367166293208  1.33505685158668
199  -0.324621086077532  1.33225988136929
200  -0.435896746700522  1.32774707364365
201  -0.547196096172335  1.32152350810384
202  -0.658522062150762  1.31359574987818
203  -0.769878832308127  1.30397187324339
204  -0.881272138385124  1.29266148921569
205  -0.992709545383605  1.27967578105208
206  -1.10420074646427  1.26502754790292
207  -1.21575786438872  1.24873125504443
208  -1.32739576147451  1.23080309619927
209   -1.4391323597038  1.21126106461211
210  -1.55098897320864  1.19012503628398
211   -1.6629906546578   1.1674168679208
212  -1.77516655775349  1.14316050677306
213  -1.88755032075145  1.11738211847799
214  -2.00018047487846  1.09011023062342
215  -2.11310088216321  1.06137589330748
216  -2.22636120901588  1.03121286107297
217  -2.34001744411222 0.999657791353296
218  -2.45413247332505 0.966750463822218
219  -2.56877672414249 0.932534019942009
220  -2.68402889602431 0.897055219934583
221  -2.79997680255557 0.860364721786791
222  -2.91671835703317 0.822517377427424
223   -3.0343627413966 0.783572549550206
224  -3.15303181018126 0.743594456166103
225  -3.27286180069907 0.702652546240408
226   -3.3940054461949 0.660821928544406
227  -3.51663461198531 0.618183885778452
228  -3.64094361352494 0.574826529574872
229  -3.76715343363409 0.530845698248528
230  -3.89551712035988 0.486346254159332
231  -4.02632672677409 0.441444047203897
232  -4.15992226144113  0.39626897375229
233  -4.29670325077031 0.350969804782067
234  -4.43714364932406  0.30572186865007
235  -4.58181094800269 0.260739299873109
236  -4.73139038075335  0.21629453819996
237  -4.88671495493262 0.172749289240763
238  -5.04880131404956 0.130603470900314
239  -5.21888962292007 0.0905721164249963
240  -5.39848159545532 0.0537051063246229
241  -5.58936234103446 0.0215708760228103
242  -5.79357551200998 -0.00346902301566225
243   -6.0132946282182 -0.0178746727806674
244  -6.25052503183795 -0.0165164315788673
245  -6.50696602313867 0.00689298813790257
246  -6.78845632953428 0.0556747807231024
247  -6.93999340803953 0.595794714070712
248  -7.61050089398757 0.632532290836109
249  -8.24975146794445 0.865207060013007
250  -8.75770256956894  1.32465830492699
251  -8.98293271305564   1.9724844127145
252  -8.82337765338551  3.02982948842089
253  -7.92821196190117  3.61431353841383
254  -6.85818569008287  3.67597226367923
255  -5.82522488180249  3.45246112074616
256  -4.85631390687331  3.21161140335038
257  -3.90391264005731  3.12335944866158
258  -2.95403211395112  3.22881646262786
259  -2.01010460882876  3.43668594022631
260  -1.05562282051375  3.55792800248897
