// Id               X                Y
  1  -0.118143276458276  1.93074617905878
  2  0.775838200104051    1.912476811237
  3   1.67038361008494  1.93932554331503
  4   2.55728967010069  2.03979102087122
  5   3.43069718984928  2.20155968336203
  6   4.28921796614468   2.4066973779057
  7   5.13877621830885   2.6214358102831
  8   5.99096999282494  2.79479431167804
  9   6.85199740720706  2.86386944787601
 10   7.70630029852272  2.76039447688748
 11   8.49649870453982  2.40318928166675
 12   8.81123620373688  2.05823304400745
 13   8.99140124295445   1.6058967725053
 14   8.93325200070386  1.10262944245744
 15   8.58800210861227 0.752389247383473
 16   7.72911325054447 0.903724893181841
 17   7.53806612021701 0.909201374017318
 18   7.42486140694271  0.90092673962775
 19   7.31568163949989 0.886870034403543
 20   7.20537129627697 0.868815624377398
 21   7.08568342498686 0.847419508559479
 22   6.95654243733964 0.825134440132924
 23   6.82013879452952 0.804870796293011
 24   6.67842087627616 0.788831084100436
 25   6.53291054537088  0.77822427941027
 26   6.38475433401587   0.7734579012512
 27   6.23478072797007 0.774408917451371
 28   6.08356025014127 0.780658626320307
 29   5.93146601374571 0.791652896993263
 30   5.77872770352706 0.806800823428091
 31    5.6254756621367 0.825529376756188
 32   5.47177480707039 0.847309990474103
 33   5.31764948391845 0.871668156849255
 34   5.16310080695652 0.898183473631934
 35   5.00811810103434 0.926484883968907
 36   4.85268596497502 0.956244023325274
 37   4.69678828452116 0.987168345241087
 38    4.5404102696296  1.01899488516959
 39   4.38353931871774  1.05148501326647
 40   4.22616526084702  1.08442023187801
 41   4.06828032117456  1.11759892091163
 42   3.90987900378352  1.15083387172659
 43   3.75095798556299  1.18395043946321
 44    3.5915160542129  1.21678516082051
 45   3.43155409193013  1.24918471107024
 46   3.27107509201934   1.2810051047444
 47    3.1100841932158  1.31211106845634
 48   2.94858871681223  1.34237553909556
 49   2.78659819734114  1.37167925116401
 50   2.62412439827233  1.39991039664434
 51    2.4611813115327  1.42696433605152
 52   2.29778513599484   1.4527433619999
 53   2.13395423945012  1.47715649398138
 54   1.96970909894364  1.50011932007129
 55   1.80507222813011  1.52155385372366
 56   1.64006808364289  1.54138843874942
 57   1.47472296292563  1.55955765130117
 58   1.30906488155211  1.57600225605004
 59   1.14312344618111  1.59066913790676
 60  0.976929707502233  1.60351129820961
 61  0.810516012234328  1.61448780247014
 62  0.643915836454905  1.62356380612815
 63  0.477163620292531  1.63071050758893
 64  0.310294586854584  1.63590519391934
 65  0.143344563446546  1.63913119237277
 66  -0.0236502082540464  1.64037792732322
 67  -0.190653260194948  1.63964086777348
 68  -0.357628090802524  1.63692158814665
 69  -0.524538357430758  1.63222771332899
 70  -0.691348066820568  1.62557297806901
 71  -0.858021766732919  1.61697717444994
 72  -1.02452472910224  1.60646620775754
 73   -1.1908231352297   1.5940720536963
 74  -1.35688424726565  1.57983281253532
 75  -1.52267658131964   1.5637926849534
 76  -1.68817006338805   1.5460020306389
 77  -1.85333618509164  1.52651737271368
 78  -2.01814814042822   1.5054014711155
 79  -2.18258095929565  1.48272336642228
 80  -2.34661162125477  1.45855848161503
 81  -2.51021916209264  1.43298871681561
 82  -2.67338476001451  1.40610259494461
 83  -2.83609181013501  1.37799541945073
 84  -2.99832597772782  1.34876948041213
 85  -3.16007523574221   1.3185342891189
 86  -3.32132988104235  1.28740686457565
 87  -3.48208253410177  1.25551206712076
 88  -3.64232812217414   1.2229830003206
 89  -3.80206385399262  1.18996149404478
 90  -3.96128919441744  1.15659870265964
 91  -4.12000585422149  1.12305586097029
 92  -4.27821781165497  1.08950526647563
 93  -4.43593138275732  1.05613158110686
 94  -4.59315534692941   1.0231335797069
 95   -4.7499011084791 0.990726504689397
 96  -4.90618282121011 0.959145212862498
 97  -5.06201731019817 0.928648303465196
 98  -5.21742347960449 0.899523373213749
 99  -5.37242069120106 0.872093416066743
100  -5.52702534008258 0.846724119245235
101  -5.68124456444328 0.823831329800071
102  -5.83506574474874 0.803887182616169
103  -5.98844021905206 0.787422160687145
104  -6.14125950615095 0.775018529944488
105  -6.29332234778053  0.76728785762443
106   -6.4442912899791  0.76482144249521
107  -6.59363898319287 0.768097190687516
108  -6.74058810252958 0.777322594618426
109  -6.88405486324879 0.792196916774743
110  -7.02260818737028 0.811615840968564
111  -7.15446295885041   0.8334396070665
112   -7.2777757997197 0.854691666143329
113  -7.39323576309916 0.872708145061765
114   -7.5083688623492 0.886113135256652
115  -7.62719712350226  0.89240528379981
116  -7.81845500243455 0.880780935850898
117  -8.66931537398441 0.683069756486361
118  -9.03642416733351  1.01041032713305
119  -9.12958580351401  1.50804410223507
120  -8.98157514146844  1.97196563316882
121  -8.68995821642808  2.33655460302249
122  -7.91903778504546  2.73357515874617
123   -7.0681654024996  2.85996084463853
124   -6.2068465054508  2.79402344504986
125  -5.35600555230359  2.61773828670632
126  -4.50921600429389  2.39561561546403
127  -3.65389959680846  2.18153302131363
128   -2.7831754419761   2.0128652913865
129  -1.89870555162871  1.90960370557159
130  -1.00723918916264  1.88004385878219
131  -0.105848291281662  2.49603104850782
132   0.78056847552456  2.51302358094026
133   1.66497986455727  2.56104185892192
134   2.54639129359895  2.66299044133199
135   3.42387931587109  2.82440913503025
136   4.30065580388814  3.02924123481839
137   5.18848049446708  3.24176862134514
138   6.10656911377712  3.40514553469333
139   7.09455850178245  3.43223362561194
140   8.12024822067954  3.17513526894359
141   8.95033113812578  2.54436507232899
142   9.29667319162993  1.96154388378775
143   9.44022394620914  1.42282251214011
144   9.46430816760912 0.921936729672775
145   9.40889379165046 0.431523985387641
146   9.21614111894236 -0.29625001841322
147    9.0370348527896 -0.578968102978123
148   8.84345509086552 -0.775034980662969
149   8.63310602665999 -0.927341700889336
150   8.41287980800514  -1.0455453557653
151   8.19513444679993 -1.13427890129248
152   7.98329209670211 -1.20101870706703
153   7.77665847737965 -1.25168136931338
154   7.57382204536934 -1.29009177398275
155   7.37360921854399  -1.3186564933927
156    7.1752616618132 -1.33894270585009
157   6.97836291035114 -1.35204641219132
158   6.78272186175588 -1.35880260538427
159    6.5882781116653 -1.35989954984185
160   6.39503810655078 -1.35593946523291
161   6.20303533976301 -1.34746972526827
162   6.01230661511785 -1.33499836580586
163   5.82287862352211 -1.31900133640298
164   5.63476123449792 -1.29992539729904
165   5.44794521268283 -1.27818915128343
166   5.26240278236703 -1.25418352636977
167   5.07808989345791 -1.22827225199326
168   4.89494931679111 -1.20079267979487
169    4.7129139611291 -1.17205695909639
170   4.53191001988702 -1.14235351065181
171   4.35185975209002 -1.11194859105744
172   4.17268377549541  -1.0810880748329
173   3.99430294108346 -1.04999894878345
174   3.81663971262696  -1.0188911599516
175   3.63961931709793 -0.987958611782225
176   3.46317039192892 -0.957381235915418
177   3.28722574144412 -0.927324967921952
178   3.11172238199314 -0.897944655473148
179   2.93660224919305 -0.869382119167572
180   2.76181161245287 -0.841771186738513
181   2.58730210052578 -0.815232180003122
182   2.41302928936893 -0.789881336546832
183   2.23895445145726 -0.765818964384836
184   2.06504200761719 -0.743146732729893
185   1.89126240468809 -0.721945453951759
186   1.71758812833586 -0.702304952813833
187   1.54399798803238 -0.684286371380119
188   1.37047158083974 -0.667970045517544
189   1.19699494982277 -0.653396993617384
190   1.02355378255681 -0.640639794557281
191  0.850139932324869 -0.629719128526967
192   0.67674413989504 -0.620700577779751
193  0.503362409413093 -0.61358499800347
194   0.32998946244409 -0.608430486554288
195  0.156623665426044 -0.605219608758229
196  -0.0167374611467939 -0.604001209001997
197  -0.190094966580219 -0.604742056448881
198  -0.363449904702225 -0.607479022558818
199  -0.536804377582567 -0.612166091321727
200  -0.710159607574904 -0.618825105112076
201  -0.88352017333568 -0.627400122326327
202  -1.05688922765476 -0.637895251421228
203  -1.23027504700272 -0.650246675271608
204  -1.40368452300622 -0.664438937163003
205  -1.57713072285919 -0.680401163699928
206  -1.75062598855342 -0.698097542342897
207  -1.92418922438921 -0.717449671355324
208  -2.09783971907601 -0.738401418505118
209  -2.27160324837505 -0.760865317789731
210  -2.44550725806453 -0.784765324810902
211  -2.61958538223153 -0.810002651770263
212  -2.79387411833435 -0.836481593875894
213  -2.96841580140309 -0.864089352631849
214  -3.14325653807098 -0.892710204657787
215  -3.31844792304504 -0.922214339176658
216   -3.4940458289951 -0.952464732300679
217  -3.67011119698286 -0.983311173710822
218  -3.84670925466667 -1.01459293957404
219  -4.02390961671287 -1.04613543777508
220  -4.20178553781222    -1.07775060335
221  -4.38041339112092 -1.10923464360613
222  -4.55987159028319 -1.14036721853329
223  -4.74023933942622 -1.17090952951172
224  -4.92159487089924  -1.2006028891103
225  -5.10401328055565  -1.2291668992225
226  -5.28756384940426 -1.25629788533417
227  -5.47230697072676 -1.28166735571099
228  -5.65829083866201 -1.30492077344529
229  -5.84554826390424 -1.32567670161866
230  -6.03409419821873 -1.34352632030887
231  -6.22392480774359 -1.35803307544087
232  -6.41501921250063 -1.36873203703957
233  -6.60734543205102 -1.37512769391162
234  -6.80087274157549 -1.37668803994963
235  -6.99559394853764 -1.37283141924187
236  -7.19156335634701 -1.36289914268792
237  -7.38895886707397  -1.3461013707116
238  -7.58817660719907 -1.32141352486875
239   -7.7899521512901 -1.28738245083523
240  -7.99544387897724 -1.24178295780907
241   -8.2060416733698 -1.18108292271212
242  -8.42220553338262  -1.0999226643034
243  -8.63961118164245 -0.992117084277115
244  -8.84706357391983 -0.853856275477188
245  -9.04022744003492 -0.676156030475735
246  -9.23468668129381 -0.403503877336582
247  -9.47040193993273 0.312143032353159
248  -9.55758776201808 0.798420231046473
249  -9.56707968073329  1.30019803990404
250  -9.45964156218671  1.84729793485133
251  -9.15026544246215  2.45103478652372
252   -8.3548724429615  3.12431607042719
253  -7.33621274155078  3.41716317324356
254  -6.32402266376685  3.40306911739191
255  -5.40267496538689  3.23827703224395
256  -4.51467806404073  3.01822989458341
257  -3.63867952380587   2.8041543552814
258  -2.76122134590211  2.63557225345796
259  -1.87832848156487  2.53252167681269
260  -0.991624921811997  2.49391174353207
