// Id               X                Y
  1  -0.113180441705724  1.84343821226801
  2  0.942600132153116   1.8015643116479
  3   1.98787425590407  1.71785231704263
  4   2.95774150752445  1.73518841388905
  5   3.89605133623753  1.80631459739947
  6   4.81883770738933  1.91152133246775
  7   5.73186016421776  2.02039936030853
  8   6.64181622552446  2.08188068513403
  9   7.54628033724797  2.01821145167791
 10    8.3958990102367  1.71701692981405
 11   9.05604797541553  1.09906777662661
 12   9.21534726446009 0.623095095119417
 13   9.16739911906958 0.124802176266003
 14   8.89787362117581 -0.292409923069576
 15   8.46427111503451 -0.526776811100494
 16   7.74240299957072 -0.469142710139809
 17    7.6039112460662 -0.449060844117262
 18   7.46690173330367 -0.427162025749281
 19   7.33101044238022 -0.403966709982702
 20   7.19531283008103 -0.379544065013203
 21    7.0584924285039 -0.353574918290551
 22    6.9196116613123 -0.325563524386634
 23   6.77838827399359 -0.294996186863566
 24   6.63502096454086 -0.261428328614678
 25   6.48992736427336 -0.224536938926461
 26   6.34356109059131 -0.184149434529252
 27   6.19631815501191 -0.140248196284551
 28   6.04850160836059 -0.092954567806785
 29   5.90031729282056 -0.0425005328321936
 30   5.75188427495671 0.0108036153840486
 31   5.60325109582275 0.066599671649846
 32   5.45441317352286 0.124506791337929
 33    5.3053289227134 0.184140580677952
 34    5.1559334124612 0.245126269503451
 35   5.00614915298152 0.307106884987099
 36   4.85589408264708 0.369747555556296
 37   4.70508710577749 0.432737034485113
 38   4.55365166067574 0.495787375750601
 39   4.40151781829448 0.558632500708026
 40   4.24862336342224 0.621026205175864
 41   4.09491422685989  0.68273999113485
 42   3.94034454426148 0.743560971876103
 43   3.78487652983009 0.803289995137241
 44   3.62848027991452 0.861740052786593
 45   3.47113356775633 0.918734993011324
 46   3.31282165442901 0.974108517830559
 47   3.15353711846168  1.02770343054435
 48   2.99327969579056   1.0793710903958
 49    2.8320561175647  1.12897103091089
 50   2.66987993390353  1.17637070319299
 51   2.50677131453481  1.22144530992537
 52   2.34275682078317  1.26407770493729
 53   2.17786914534084  1.30415833601589
 54   2.01214682148729  1.34158521923058
 55   1.84563390151443  1.37626392988947
 56   1.67837960892411  1.40810760985589
 57   1.51043796593114  1.43703697713698
 58   1.34186740139586  1.46298034757054
 59   1.17273033906514  1.48587364982688
 60   1.00309277338598  1.50566045345411
 61  0.833023829567172  1.52229198234979
 62  0.662595316482756  1.53572714468791
 63  0.491881269474097  1.54593254021024
 64  0.320957489384492  1.55288248840919
 65  0.149901077137694  1.55655902722259
 66  -0.0212100324341649  1.55695193680791
 67  -0.192297538758929  1.55405872966104
 68  -0.363283243038832  1.54788466833216
 69  -0.53408951643121  1.53844274834705
 70  -0.704639769093501  1.52575370835409
 71  -0.874858916503005   1.5098460074386
 72  -1.04467384721991  1.49075582657922
 73  -1.21401388358669  1.46852704230251
 74  -1.38281123985199  1.44321122038177
 75  -1.55100146982523  1.41486758902581
 76   -1.7185239060786  1.38356302829856
 77  -1.88532208457236  1.34937204726372
 78  -2.05134415618004  1.31237677433093
 79  -2.21654327770877  1.27266694359417
 80   -2.3808779843369  1.23033989363845
 81   -2.5443125356289  1.18550057126971
 82  -2.70681723459282  1.13826155273603
 83   -2.8683687156207   1.0887430835282
 84  -3.02895019890165  1.03707315143467
 85  -3.18855171130772 0.983387604553417
 86  -3.34717027645881 0.927830336135664
 87  -3.50481007758766 0.870553562208608
 88  -3.66148260385748 0.811718225586246
 89  -3.81720679108288  0.75149456585989
 90  -3.97200916806654 0.690062900467979
 91  -4.12592401894719 0.627614661015192
 92  -4.27899355893393 0.564353723703547
 93  -4.43126809782787 0.500498056491372
 94  -4.58280613221832  0.43628167320351
 95  -4.73367425144946 0.371956834781837
 96  -4.88394666647303 0.307796364453167
 97  -5.03370408314728 0.244095839645669
 98  -5.18303154584283 0.181175287779417
 99  -5.33201478762555 0.119379845968195
100  -5.48073457050771 0.0590786491700776
101  -5.62925851893709 0.000661003925143633
102  -5.77763008027061 -0.0554712738233069
103  -5.92585453308995 -0.108916551286317
104  -6.07388246318644 -0.159292133024794
105   -6.2215919215045 -0.206259513655736
106   -6.3687717520772 -0.249555302342449
107  -6.51511078242238 -0.289024877048058
108    -6.660201674237 -0.324652975333341
109  -6.80357572504948 -0.35658268199814
110  -6.94479606682641 -0.385113554413985
111  -7.08364272686842 -0.410672922685014
112  -7.22038504975147 -0.433758690449475
113  -7.35597661162288 -0.454843579028324
114  -7.49178406243319 -0.474212378092444
115  -7.62876890680329 -0.491759985675155
116  -7.76727944704193 -0.506936330046974
117  -8.49023146814367 -0.53065588269186
118  -8.90846222593978 -0.268178709795747
119  -9.14550788421823  0.16958692948646
120  -9.15234432749892  0.67147760272723
121  -8.95513933103339   1.1342199896565
122   -8.2527506123173  1.70582761989237
123  -7.38798852968661  1.96435358022617
124  -6.48091387952114  1.99774874423207
125  -5.57250752614248  1.91615883124862
126  -4.66430713807321   1.7989819915741
127  -3.75257796347313  1.69557729717116
128  -2.83861120218793  1.63715535235126
129  -1.92893779339983  1.64618456375094
130  -1.01749105966201  1.71633976465007
131  0.259456957087883  2.29051489057415
132   1.20362417873596   2.3127964999688
133   2.10604759390648  2.32480549450105
134   3.01164909293218  2.35686827556928
135   3.92343907134269  2.42866163969742
136   4.84206728282605    2.533484876249
137   5.77524078491142  2.64059006300332
138   6.74459678734947  2.69314007852409
139   7.78997579512485  2.58809753941523
140   8.77837710422417  2.18771264151848
141   9.50987038645941  1.41912215047472
142   9.72893475670494 0.774987534704867
143   9.70859123809038 0.0927456486915883
144   9.45433401270452 -0.542103681210573
145   9.01566721020254 -1.06282144901122
146   8.55526795626204 -1.39236172821582
147   8.29171042361525 -1.51814797431418
148   8.02690301346795  -1.6091039016836
149   7.76335917417472 -1.66958505822702
150   7.50348545362551 -1.70359168628057
151   7.25018580792779 -1.71501666890009
152   7.00598250008036 -1.70787292922585
153   6.77229861213339 -1.68604112116792
154   6.54939152504986 -1.65291463509126
155   6.33668071062228 -1.61122235308746
156   6.13315025246378 -1.56304599355872
157   5.93765833049333 -1.50994026113204
158    5.7491173740469 -1.45307285309449
159   5.56657207769496 -1.39334243624403
160   5.38921563986388 -1.33146389567289
161   5.21637602068689 -1.26802479404296
162   5.04749171304439 -1.20352097253574
163   4.88208707363433 -1.13837859850099
164   4.71975146273945 -1.07296805200025
165   4.56012333629505 -1.00761319194129
166   4.40287897016549 -0.942598133003744
167   4.24772493033338 -0.878172706370292
168   4.09439328984318 -0.814557179024325
169   3.94263869982071 -0.751946464878832
170   3.79223661262432 -0.690513900958535
171   3.64298215402895 -0.630414581681401
172   3.49468928844515 -0.571788258380983
173    3.3471900849745 -0.514761760477938
174   3.20033394418884 -0.459451055821755
175   3.05398681179299 -0.405962801462229
176   2.90803023574042 -0.354395795498632
177    2.7623605360804 -0.304841704397374
178   2.61688767084456 -0.257386349778835
179   2.47153456093715 -0.21210942996793
180   2.32623568841697 -0.16908641427175
181   2.18093689131579 -0.128386534019777
182   2.03559343452984 -0.0900766799548257
183   1.89017069683547 -0.0542160091244541
184   1.74464127794954 -0.0208642696696163
185   1.59898706861541 0.00992991062426789
186   1.45319488673293 0.0381125474985137
187    1.3072603671571 0.0636465897728731
188   1.16118179338955 0.0864824714733826
189   1.01496590261032 0.106595977911799
190  0.868620109097815 0.123940895091803
191  0.722159639857919 0.138506789447995
192  0.575599104750929 0.150250449509844
193  0.428959593625029 0.159175311110422
194  0.282261180472199 0.165241932580988
195  0.135528152296396  0.16846652461513
196  -0.0112158054687988 0.168815364885431
197  -0.157945869598721 0.166315235512514
198  -0.304636953038188 0.160940845743858
199  -0.451266176186645 0.152726749902693
200  -0.597809601687884 0.141658803407598
201  -0.744248405171236 0.127776722273471
202  -0.890562495429203 0.111079475271692
203  -1.03673888934952 0.0916102291848864
204  -1.18276401976112 0.0693818650018696
205   -1.3286325049464 0.0444404972796419
206  -1.47433992803917 0.0168125779112587
207  -1.61989054999958 -0.01345229201383
208  -1.76529172217404 -0.0463151766994523
209  -1.91055980185532 -0.0817218410654365
210  -2.05571658584654 -0.11962214276604
211  -2.20079338867716 -0.159955865727525
212  -2.34582928950803 -0.202662624541143
213  -2.49087379878975 -0.24767486701881
214  -2.63598641688257 -0.294922269827247
215  -2.78123845044228 -0.344328497551447
216  -2.92671337546926 -0.395812704400252
217  -3.07250822440114 -0.449287898898275
218  -3.21873438093797 -0.504660962758564
219  -3.36551874467659 -0.561831397952948
220  -3.51300467008643 -0.620690424447573
221  -3.66135297511225 -0.681119431875279
222  -3.81074280453967 -0.742988228684384
223  -3.96137246867648 -0.806152774927991
224  -4.11346022140605 -0.870452478226648
225   -4.2672450874276 -0.935706949998798
226  -4.42298793698877 -1.00171224951898
227  -4.58097313773695 -1.06823660392471
228  -4.74151125268777 -1.13501559158492
229   -4.9049434717254 -1.20174670755586
230  -5.07164865954292   -1.268083062686
231  -5.24205399072038 -1.33362560598458
232  -5.41665001468479 -1.39791263517241
233  -5.59601040508211 -1.46040437110825
234  -5.78081512450186 -1.52045892658686
235  -5.97187251448067 -1.57729413491812
236  -6.17012985064315 -1.62992786577986
237  -6.37665226448285 -1.67708911394839
238  -6.59253753769108 -1.71709679828766
239  -6.81872590976257 -1.74771896938564
240  -7.05567778224329 -1.76605760997133
241  -7.30295637174881  -1.7685457593152
242  -7.55888459584535 -1.75115055875376
243   -7.8206007472659 -1.70976028757118
244  -8.08478233409259 -1.64045600408806
245  -8.34855166887175 -1.53927109352117
246  -8.60888680088539 -1.40194751739418
247  -9.06802467630448 -1.03694740644352
248  -9.47395447345351 -0.489815338683626
249  -9.68506060759566 0.161066842406428
250  -9.65770707076332 0.843720332922591
251   -9.3943152467781  1.47233902074739
252  -8.61301150099996  2.19504331387133
253  -7.60368668402958  2.54550670618061
254  -6.55261161764368  2.61362523911069
255  -5.56055779450835  2.53731129307024
256  -4.61695448490963  2.41941318989411
257  -3.68122148202383  2.31432552515676
258  -2.74037882272047  2.25178903562985
259  -1.77461065932233  2.23795537440243
260  -0.740366737515897  2.25832729847275
