// Id               X                Y
  1  -0.105990109765403  2.43272784465299
  2  0.969913430735343  2.38754563540428
  3   2.02706551286799  2.22134189975988
  4   3.06385996682314  2.13403315752648
  5   4.02411148538439  2.10977317853956
  6   4.96628151924156  2.11643691923852
  7   5.89698756011183  2.12760197155312
  8   6.81841085184723  2.09711885170676
  9   7.71444288191706  1.93363526371714
 10   8.52027163168788  1.53485740927618
 11   9.09844524428891 0.843422544150699
 12   9.20144233212437 0.355338879100126
 13   9.09839882779556 -0.140599235380599
 14   8.76943713428423 -0.531065059913703
 15   8.29046930549942 -0.683002134711874
 16   7.64348001526779 -0.451362827562026
 17   7.50559798234428 -0.38615837275585
 18   7.37136191473108 -0.318784995615368
 19   7.23960090575617 -0.250302653823472
 20   7.10928969947781 -0.181352355363454
 21   6.97957061996744 -0.112303948224557
 22   6.84975916010636 -0.0433589320513211
 23   6.71933681409365 0.0253827328293383
 24   6.58793403712537 0.0938820508157457
 25   6.45530701923182 0.162137372461797
 26   6.32131209974363 0.230170338374141
 27   6.18588091412644 0.298016459363458
 28   6.04899825399452 0.365717633332811
 29   5.91068358835157  0.43331547772268
 30   5.77097644290615  0.50084525998684
 31   5.62992538127485 0.568330600565261
 32   5.48758011215028 0.635779201446855
 33   5.34398618024674 0.703179778638629
 34   5.19918171928247 0.770500252877751
 35   5.05319580561265 0.837687136400561
 36   4.90604802282076 0.904665968557018
 37   4.75774891577756 0.971342604384722
 38   4.60830107148433   1.0376051432821
 39   4.45770061264662  1.10332629145536
 40   4.30593892998694  1.16836597339666
 41   4.15300451287339  1.23257403716602
 42   3.99888476668064   1.2957929303706
 43   3.84356773098565  1.35786025470816
 44   3.68704363599535  1.41861113459857
 45    3.5293062551258  1.47788035898671
 46   3.37035402943929  1.53550427455649
 47   3.21019095528352  1.59132242331086
 48   3.04882723902413  1.64517892860252
 49   2.88627973186033  1.69692364187682
 50   2.72257216481837  1.74641306777874
 51   2.55773520877937  1.79351108857423
 52   2.39180638556461  1.83808951111735
 53   2.22482985688973  1.88002845996062
 54   2.05685611740424  1.91921664008169
 55   1.88794161490061  1.95555149170428
 56   1.71814831803797  1.98893925872016
 57   1.54754325019767  2.01929498935482
 58   1.37619800225795  2.04654248740553
 59    1.2041882355616    2.070614228243
 60   1.03159318370546  2.09145125380611
 61  0.858495157795057  2.10900305615471
 62   0.68497905918661  2.12322746057206
 63  0.511131903727303  2.13409051307117
 64  0.337042356560758  2.14156638144131
 65  0.162800279762937  2.14563727121988
 66  -0.0115037085376017  2.14629336428599
 67  -0.185778667846364  2.14353277899771
 68  -0.359933763518292  2.13736155783608
 69  -0.533878695188587  2.12779367893193
 70  -0.707524131147172  2.11485109504351
 71  -0.880782149557616  2.09856379420889
 72   -1.0535666910284  2.07896988312919
 73  -1.22579402340685  2.05611568594918
 74  -1.39738321557139  2.03005585728885
 75  -1.56825662256276  2.00085350066571
 76  -1.73834037726057  1.96858028761402
 77  -1.90756488402239  1.93331656708261
 78   -2.0758653115833  1.89515145524172
 79  -2.24318207449491  1.85418289221184
 80   -2.4094612917076  1.81051765178469
 81  -2.57465521123878  1.76427128573387
 82  -2.73872257942686  1.71556798503837
 83  -2.90162893495391  1.66454033690754
 84  -3.06334680628571  1.61132895495406
 85  -3.22385578333707  1.55608196040508
 86    -3.383142437589  1.49895429101171
 87  -3.54120006691387  1.44010681413131
 88  -3.69802823800396  1.37970522431188
 89  -3.85363210761247  1.31791870790895
 90  -4.00802151335996  1.25491836155922
 91  -4.16120982999539    1.190875360939
 92  -4.31321260140119  1.12595888667366
 93  -4.46404597818279  1.06033382712416
 94  -4.61372500628369 0.994158297421248
 95   -4.7622618317005 0.927581037635257
 96  -4.90966391299545 0.860738778428253
 97  -5.05593235940613 0.793753692082276
 98  -5.20106053851129 0.726731078478126
 99  -5.34503313012115 0.659757463420886
100  -5.48782584311729 0.592899305738072
101  -5.62940605806201 0.526202514567933
102  -5.76973471284876 0.459692961167994
103  -5.90876981304378 0.393378122295165
104  -6.04647201737969 0.327249911592843
105  -6.18281280667928 0.261288648752844
106  -6.31778576253453 0.195468009781976
107  -6.45142141204649 0.129760753944302
108  -6.58380586408571 0.0641451392016933
109  -6.71510297811175 -0.00138762256902257
110  -6.84557898493867 -0.0668235640521191
111  -6.97562732187222 -0.13211089069666
112  -7.10579016851507  -0.1971344970744
113   -7.2367722936784 -0.261672575061109
114  -7.36944294459356 -0.325326194764657
115   -7.5048224387421 -0.387412635088465
116  -7.64404947498916 -0.44681442227394
117  -8.29747931360824 -0.64614183084825
118  -8.76805650776693 -0.465458288302084
119  -9.07102690443004 -0.0514223231498796
120  -9.13898122885577 0.451743071440656
121  -9.00409322372127 0.932101337681912
122  -8.39034541536607  1.59219995563353
123  -7.57124272335982  1.96274276695895
124  -6.67208700893819  2.10643811190212
125  -5.75187098756122  2.12355507957537
126  -4.82547379369733  2.09951445845322
127  -3.89629522389567  2.08490217878142
128   -2.9708349388205  2.10844494532236
129   -2.0553791464872  2.19445116630014
130  -1.07015008027893  2.29455022920191
131  0.302176540848078  2.84719685811069
132   1.33794011918468  2.83387951911566
133   2.25730106295278  2.79010978272362
134   3.17718666214782   2.7457063100102
135   4.10793136988823  2.72636710464922
136   5.05237867988344  2.73176982471262
137   6.03370400889079  2.73188788527471
138   7.08683764774115   2.6561597278555
139   8.13217575535108  2.39212670556511
140   9.05995820110681  1.81444274971577
141   9.63134188826962 0.885275973432744
142   9.68895593930178 0.186070417785966
143   9.48279449316042 -0.480320580915039
144   9.05874816846053 -1.02720449006422
145   8.49316847064459  -1.4196345206317
146   7.83013726481691 -1.67117512658758
147   7.61320843708158  -1.7140075611475
148   7.40003465989114 -1.73950198792809
149   7.19134313957654 -1.74964734112857
150   6.98756070308516 -1.74633400525996
151   6.78888340680286 -1.73131226287982
152   6.59533508328247 -1.70617677549699
153   6.40681348057753 -1.67236566310143
154   6.22312640471331 -1.63116719425445
155   6.04402018157976 -1.58373023943777
156   5.86920196697463 -1.53107633158314
157   5.69835693272723 -1.47411205118659
158   5.53116119421626 -1.41364098244872
159   5.36729130498475 -1.35037485535971
160   5.20643108114228 -1.28494373910323
161   5.04827640373584 -1.21790529071025
162   4.89253850592861 -1.14975312129235
163    4.7389461196675 -1.08092434670698
164   4.58724674934757 -1.01180637802139
165    4.4372072649964 -0.942742991951545
166     4.288613958761 -0.874039715757099
167   4.14127217968498 -0.805968563799008
168   3.99500564528911 -0.738772170521052
169   3.84965551661143 -0.672667372590824
170   3.70507931063755 -0.607848301926883
171    3.5611497193724 -0.544489046108241
172   3.41775338971847 -0.482745953371465
173   3.27478972642931 -0.42275961193366
174   3.13216972744979 -0.364656613559144
175   2.98981492985226 -0.308551022808199
176   2.84765639095526 -0.254545828445129
177   2.70563389330362 -0.202733939859775
178   2.56369504411278 -0.153199609686608
179   2.42179484106049 -0.106018733407867
180    2.2798947310271 -0.061260790698728
181   2.13796271753277 -0.0189877206182009
182   1.99597201837561 0.0207424316695787
183    1.8539020682705 0.0578797279652339
184   1.71173620891936 0.0923745968913795
185   1.56946411314174 0.124188299016379
186   1.42707781216746 0.153276964396159
187   1.28457613232815 0.179613329508284
188   1.14195847841068 0.203156616955722
189  0.999231588521562 0.223892034322315
190  0.856401081497526 0.241779727973014
191  0.713480042030934 0.256818377548065
192  0.570479336025726 0.268967908182638
193  0.427416475564649 0.278240594892105
194  0.284306665212964 0.284596639190241
195   0.14116962849369 0.288060501251337
196  -0.00197626444429019 0.288594985667895
197  -0.145111414909835 0.286233761601359
198  -0.288216003379111 0.280945827708874
199  -0.431272672047249 0.272770246886197
200  -0.574262363770438  0.26168591620705
201  -0.717171551965588 0.247733842504086
202  -0.859984309107143 0.230905485743278
203  -1.00269203526729 0.211241786576701
204  -1.14528412425479 0.188747806195799
205  -1.28775782651363 0.163464259551424
206  -1.43010972217147 0.135409401095155
207  -1.57234394296622 0.104625102314534
208  -1.71446576042851 0.071141698343067
209  -1.85648739722374 0.0350044962274865
210  -1.99842399966703 -0.00374501628280669
211  -2.14029721873296 -0.0450554536300668
212  -2.28213310980445 -0.0888742557963492
213  -2.42396417222332  -0.1351411468633
214  -2.56582853749791 -0.183791427117947
215  -2.70777115072675 -0.234752858281925
216  -2.84984376544959 -0.287946335912154
217  -2.99210578602428 -0.343284112385119
218  -3.13462473255835 -0.400669256913837
219  -3.27747709195501 -0.459994222800816
220  -3.42074909092899 -0.521139678665424
221  -3.56453765837032 -0.583972951052123
222  -3.70895143717256 -0.648346390398336
223  -3.85411186972337 -0.714095442085785
224  -4.00015429446259 -0.781036464728358
225    -4.147229045284 -0.848964209828157
226  -4.29550247681971 -0.91764891865272
227  -4.44515783956155 -0.986832958719421
228  -4.59639593362632 -1.05622694770335
229  -4.74943545781396 -1.12550531172458
230  -4.90451294225631 -1.19430122831661
231  -5.06188213962018 -1.26220091965821
232  -5.22181274113697  -1.3287372784633
233  -5.38458825461659 -1.39338281951044
234  -5.55050282905072 -1.45554195215574
235  -5.71985673984574 -1.51454256372152
236  -5.89295015371506  -1.5696269097878
237    -6.070074681572 -1.61994182543076
238  -6.25150211521974 -1.66452834497273
239  -6.43746967182547 -1.70231095892187
240  -6.62816106036396 -1.73208697507461
241  -6.82368269664393 -1.75251677599113
242  -7.02403424867961 -1.76211622301116
243  -7.22907213659285 -1.75925325832572
244  -7.43846369237555 -1.74215244443831
245  -7.65162950657339 -1.70891444319902
246  -7.86767561825882  -1.6575619645111
247   -8.5205641552376 -1.37643878159434
248  -9.06506528452759 -0.956642334319516
249   -9.4590844628281 -0.388412468004896
250  -9.62944636180003 0.288607644218899
251  -9.53591171552643 0.985151616825315
252  -8.92195623354509   1.8888342358075
253  -7.97398065974359   2.4346178341807
254  -6.92193416220315  2.67381906628576
255  -5.86493891681854  2.73284801535046
256  -4.83779050330729  2.72016141219338
257  -3.86894699700478  2.70617442833965
258  -2.87808245346945  2.71999929444242
259  -1.82696330604725  2.76403656833511
260  -0.760620065674364  2.81574766985588
