// Id               X                Y
  1  -0.46471227901826  9.77248401706429
  2  0.617788139869828  9.74299139743225
  3   1.67653864138502  9.53421087972359
  4   2.67686701089267  9.15292462021442
  5   3.58458146368154  8.61411909340767
  6   4.36907056316988  7.94184316130564
  7      5.02462575385  7.15784968207511
  8   5.65248860947771  6.29600867632221
  9   6.30696862586386  5.46537743326542
 10   6.97516130638487  4.67946361557979
 11   7.57967781230014  3.94339358663244
 12    7.8816494647266  3.47681600769961
 13   8.11841561101669  2.89148663873747
 14   8.11254784852769  2.23828388326896
 15    7.7881288523022  1.78732512627978
 16   7.29708225062777  1.66267775329209
 17   7.19969669811482  1.66883144187883
 18   7.09988190442559  1.68523499145554
 19   6.99940260115253  1.71212253044586
 20   6.89970939907825  1.74962688397918
 21   6.80280589492137  1.79702202553601
 22   6.71035775321699  1.85334988633733
 23   6.62297089911768  1.91771327988542
 24   6.54054244950847  1.98983634398904
 25   6.46263576930913  2.06987943858526
 26   6.38891658417581  2.15834348747002
 27   6.31924649010307   2.2558098194095
 28    6.2537175419547  2.36283116108372
 29   6.19255981178981  2.47984418182026
 30   6.13604663237674  2.60715915204025
 31   6.08438866033979   2.7449823096805
 32   6.03764729843103   2.8934677634074
 33    5.9956658273592  3.05278373749513
 34    5.9580193941001   3.2231843469448
 35   5.92397778026377  3.40507857303985
 36   5.89247295305744  3.59909143011001
 37   5.86206065587176  3.80612302185067
 38    5.8309501377654  4.02679768810406
 39   5.79726171475907  4.25939403225423
 40   5.75887054651074  4.50199195627546
 41   5.71350018667396  4.75318247851408
 42   5.65892963350939  5.01159017796565
 43   5.59311656860797  5.27577388693278
 44   5.51428006313097  5.54420405277361
 45   5.42094800547102  5.81527393122428
 46   5.31197389181599  6.08732609639095
 47   5.18652992507544  6.35868269278266
 48   5.04408471154922  6.62767263560847
 49   4.88437343605416  6.89265298648315
 50   4.70736660568099  7.15202460993428
 51   4.51324109348311  7.40424370623847
 52   4.30235503472425  7.64783110531258
 53    4.0752265636577  7.88138074363412
 54   3.83251553291394  8.10356800122228
 55    3.5750071165546  8.31315788908395
 56   3.30359635757855  8.50901262287281
 57   3.01927307750492  8.69009793495067
 58   2.72310696094715   8.8554875230366
 59   2.41623295965551  9.00436523365232
 60   2.09983737710064  9.13602485353861
 61    1.7751450840053  9.24986766551503
 62   1.44340829098626  9.34539816902075
 63   1.10589719464961  9.42221854128755
 64  0.763892651097952  9.48002251105851
 65   0.41868084728113  9.51858933407721
 66  0.0715497619475896  9.53777850771178
 67  -0.276212946774963  9.53752575488999
 68  -0.623321108458788  9.51784066014425
 69   -0.9684908182162   9.4788061675573
 70  -1.31044140945111  9.42057996502816
 71  -1.64789718630633  9.34339759372321
 72  -1.97959041517624  9.24757694766658
 73  -2.30426596679287  9.13352367843155
 74  -2.62068785683159  9.00173690696115
 75  -2.92764776493642  8.85281458230423
 76  -3.22397543642722  8.68745782820512
 77  -3.50855071075646  8.50647369223712
 78  -3.78031680419754  8.31077586071782
 79   -4.0382944314452  8.10138311715201
 80  -4.28159640835162  7.87941557876458
 81  -4.50944255063155  7.64608900380495
 82  -4.72117496349289  7.40270766353708
 83  -4.91627416322202   7.1506563468969
 84  -5.09437679726213  6.89139194371301
 85  -5.25529589724001  6.62643469201345
 86  -5.39904443071078  6.35735860055802
 87  -5.52586222687511  6.08577990694523
 88  -5.63624502252009  5.81334198713332
 89   -5.7309724681184   5.5416952984982
 90  -5.81112979138839  5.27247212482892
 91  -5.87811606592512   5.0072583086238
 92  -5.93363141074896  4.74756764479438
 93  -5.97963638607188  4.49482880711333
 94  -6.01827889605227  4.25040033861891
 95  -6.05178460113911  4.01564478668703
 96  -6.08228080269642   3.7922860032054
 97  -6.11164556588219  3.58225233350852
 98   -6.1416519189893  3.38536822692765
 99   -6.1737731959732  3.20077155295105
100  -6.20911017365727  3.02780397745227
101  -6.24843007790111  2.86598752479902
102  -6.29220509696046  2.71497422722773
103  -6.34065761235033  2.57448261548305
104  -6.39381925314118  2.44423001352116
105  -6.45160829436601  2.32387117534704
106   -6.5139237464745  2.21295662245763
107  -6.58074666266715  2.11092750460912
108  -6.65222435905635  2.01716573436348
109  -6.72869396942613  1.93111967935105
110  -6.81057878057559  1.85250803690155
111  -6.89810271636406  1.78154622502752
112  -6.99087602767081  1.71904013718843
113   -7.0876727061876  1.66612869905231
114  -7.18688543194563  1.62368913281414
115  -7.28734016239609  1.59200212652558
116  -7.38749944060701  1.57117517265603
117  -7.89499375128669  1.62430450628509
118  -8.27169671769932   2.0235877373454
119  -8.34524430877513  2.66461584706554
120  -8.17976343332646  3.20897245827222
121  -7.91147722218165  3.68116287594029
122  -7.32341231279281  4.41462419902063
123  -6.70581000024698  5.12737913462223
124  -6.11232467496586  5.86692739160364
125  -5.56189582699685  6.64278822432332
126  -5.02107744938569   7.4317546770401
127  -4.32976885403696  8.17552268012605
128  -3.49998576392882  8.80635140345594
129  -2.55834342257337  9.29518736533023
130  -1.51731326267066  9.57783149908202
131  -0.14619482827604  10.2604455725901
132  0.971201210614685  10.2099771922346
133    2.0610523326597  9.97444176178399
134   3.09290824864098  9.56189386258007
135   4.03578237233251  8.98130346145943
136   4.86018620627512  8.24851096648226
137   5.56209396186145  7.40449764179417
138   6.21862854978885  6.52867717090778
139   6.89043161639786  5.66448198962125
140   7.57865473032282  4.80618711807172
141   8.18576108351855  3.87906372247577
142   8.43030888503382  3.20712973727524
143   8.50785632035038  2.49570186001781
144   8.39977864976237  1.79108071960675
145   8.13876603660789  1.13968449584835
146   7.75378476518272 0.516923062310256
147   7.34121500931434 0.183273997641105
148   6.95412201244675 0.0154985577784402
149   6.59954351830683 -0.0505479482112942
150   6.27619344559361 -0.0476632343980627
151    5.9797464610002 0.00592917766546695
152   5.70643950062815 0.0999476566422969
153   5.45435358896758 0.227946367782156
154       5.2230429203 0.384949507414191
155   5.01268046919837 0.566434234881336
156   4.82339117280901 0.768086996216521
157   4.65492303104661 0.985859211558747
158   4.50656613123366  1.21606515699274
159   4.37719566891462  1.45542884708361
160   4.26535370144844   1.7010702487211
161   4.16932739878505  1.95045337734196
162    4.0872132742147  2.20132001708989
163   4.01697293497818  2.45162340599726
164   3.95649060397708  2.69946719045541
165   3.90364164502318  2.94304832857004
166    3.8563778980114  3.18059825576504
167   3.81283324686359  3.41030627690691
168   3.77133603848558  3.63081649229241
169   3.73011088171055  3.84318731348761
170   3.68762052040651   4.0487024278416
171   3.64262965862096  4.24812151358012
172   3.59407687105493   4.4420951190384
173   3.54102140380022  4.63121457963657
174   3.48260814412995  4.81600300613571
175   3.41804483015614  4.99689083845793
176   3.34658970083674  5.17419137536161
177   3.26754777570679  5.34808293643485
178   3.18027366166655  5.51859964751141
179   3.08417887884428  5.68563020203811
180     2.978742092109  5.84892284250615
181   2.86352106913675  6.00809476318945
182   2.73816547644685   6.1626446226981
183   2.60242973351808  6.31196741978614
184   2.45618514034619   6.4553713666434
185   2.29943047600103  6.59209652238845
186   2.13230030925629  6.72133488541465
187    1.9550703928091  6.84225149390834
188   1.76815971336465  6.95400594489907
189   1.57212900223852  7.05577367023075
190   1.36767573435996   7.1467663186524
191   1.15562582758111  7.22625067359122
192  0.936922384223733  7.29356565886199
193  0.712611891871589   7.3481371205921
194  0.483828329082427  7.38949019963081
195  0.251775617115265    7.417259209854
196  0.0177088347995206  7.43119500767976
197  -0.21708541765385  7.43116987703718
198  -0.451309149664855  7.41717996667955
199  -0.683673271568791   7.3893453102901
200  -0.912917721838381  7.34790744265625
201  -1.13783110313952  7.29322460614426
202  -1.35726948472528  7.22576452984587
203  -1.57017400319412  7.14609476805186
204  -1.77558686336602  7.05487061329768
205  -1.97266531456186  6.95282065814432
206  -2.16069316681624  6.84073017097573
207  -2.33908943068558  6.71942256982987
208  -2.50741372732862  6.58973941170471
209  -2.66536823238393   6.4525194412299
210  -2.81279608900575  6.30857733413555
211    -2.949676440277  6.15868279989162
212  -3.07611646228469  6.00354065773966
213  -3.19234098833338   5.8437723794831
214  -3.29868046368966  5.67989944554639
215  -3.39555803790666  5.51232876939695
216  -3.48347660343242  5.34134050655914
217  -3.56300658476287  5.16707884209339
218  -3.63477536044132  4.98954680585728
219  -3.69945943071542  4.80860659479055
220  -3.75778081255789  4.62398690926294
221  -3.81050951051119  4.43529796659353
222   -3.8584740521714  4.24205271164787
223   -3.9025818731365  4.04368888795038
224  -3.94385121160753  3.83957965709871
225  -3.98345843580148  3.62900177022906
226  -4.02284067898334  3.41083389808677
227  -4.06372891902577  3.18375836506483
228  -4.10781717850663  2.94859961679626
229  -4.15697041670936  2.70700817748202
230  -4.21328185795666   2.4606388511713
231  -4.27898086649952  2.21120709770766
232  -4.35635118932241  1.96055561345128
233  -4.44765866405491  1.71072716728571
234   -4.5550822803789  1.46404339688575
235  -4.68063995991732  1.22318468873835
236  -4.82610334740688 0.991257372756699
237  -4.99290889945371 0.771825272891472
238  -5.18210068559311 0.568881308451887
239  -5.39438551224887 0.386757090931264
240  -5.63042351178311  0.23004573772589
241   -5.8914535679708 0.103772008700948
242  -6.18015902379089 0.0142569897329058
243  -6.50121772458145 -0.0287317153994626
244  -6.86053502215758 -0.00807167948037144
245  -7.26279371533536 0.107220523606534
246  -7.70870559442703 0.378086881622703
247  -8.17306965438811 0.942169608665834
248  -8.51430386434731  1.55413445606442
249  -8.70014534478681  2.24181480110512
250  -8.68674791872012  2.95773157610195
251  -8.48523158369393  3.64433868470146
252  -7.91176425907673  4.59263610982822
253  -7.22549928018422  5.45631663673861
254  -6.53373758181004  6.31377804818968
255  -5.85220161424635  7.18392619508584
256  -5.13136275373733  8.03067622994716
257   -4.3107922497146  8.78678660252497
258  -3.37667154156783  9.40443460468774
259  -2.34772187888839  9.85334986363738
260   -1.2601963649243   10.130042752078
