// Id               X                Y
  1  -0.114481321606837  3.16118016021881
  2  0.977035558741535  3.14195833805752
  3   2.05016325786123  3.04811763431763
  4   3.09228112500955  2.84883712630035
  5    4.1212794508757  2.54614388718893
  6   5.01988118707252  2.20608766196621
  7   5.93429492477036  1.95105288693696
  8   6.87055482531002  1.80675265061129
  9   7.80967374138956  1.72980696926787
 10   8.73117070837926  1.60893477940845
 11   9.59549679756805  1.28332884362462
 12   9.97168868557484 0.926690094117138
 13   10.1806027538977 0.441709215794839
 14    10.105240123447 -0.0994831007829236
 15   9.72862840038372 -0.467513364497769
 16   9.16099323921158 -0.518888050334089
 17   8.71524974947247 -0.41798159457999
 18    8.6357152940387 -0.392781597135815
 19   8.57368746553743 -0.371608101283207
 20   8.51322370231918 -0.349651921846289
 21     8.442646626964 -0.322408692113168
 22   8.35813195725543 -0.287437227890286
 23   8.25943289431359 -0.243364393485409
 24   8.14802496780192 -0.189461239920613
 25    8.0261283096871 -0.125569416360854
 26   7.89602910660699 -0.0520007062766951
 27   7.75965654889027 0.0305959247105249
 28   7.61841399285706 0.121369212466204
 29   7.47318221601053 0.219372578034052
 30   7.32440652605985 0.323634647709455
 31   7.17221017772224  0.43319594851833
 32    7.0165046363482   0.5471202991057
 33     6.857083769915 0.664491668987589
 34   6.69369760787807 0.784406494409187
 35   6.52610568922445 0.905968546142512
 36   6.35411228050888   1.0282898182135
 37   6.17758680677796  1.15049775066133
 38    5.9964731323196  1.27174707598226
 39   5.81079108709395  1.39123379091353
 40   5.62063304110404  1.50820892114522
 41   5.42615757196827  1.62199042485847
 42   5.22758153529596  1.73197236384207
 43   5.02517126967476  1.83763109881731
 44   4.81923330514803  1.93852864786455
 45   4.61010477771717  2.03431351359903
 46   4.39814372043908  2.12471931689021
 47   4.18371943378704  2.20956155023729
 48   3.96720317945295  2.28873273244915
 49   3.74895946171423  2.36219622897855
 50   3.52933814862094  2.42997900044827
 51   3.30866764472648  2.49216354795373
 52   3.08724926730906   2.5488793285886
 53   2.86535290972614  2.60029391162869
 54   2.64321400800233  2.64660413166747
 55   2.42103176678823  2.68802746954028
 56   2.19896855266645   2.7247938570907
 57   1.97715032838422  2.75713806092942
 58   1.75566798112483  2.78529275694512
 59   1.53457939025708  2.80948236491227
 60   1.31391208312895   2.8299176740157
 61   1.09366633894043   2.8467912576341
 62  0.873818617938872  2.86027365062964
 63  0.654325213629518   2.8705102452426
 64  0.435126047152642   2.8776188523868
 65  0.216148543578872  2.88168787306906
 66  -0.00268845185927786  2.88277502883007
 67  -0.22147074474324  2.88090660931373
 68  -0.440284866137563  2.87607720797298
 69  -0.659214161422989  2.86824993211826
 70  -0.87833490260307  2.85735708959855
 71  -1.09771243708058  2.84330136997416
 72  -1.31739739421649  2.82595755171531
 73  -1.53742198348891  2.80517477739731
 74   -1.7577964340686  2.78077944478577
 75  -1.97850564413575  2.75257876195895
 76  -2.19950612796999  2.72036500824942
 77  -2.42072336809892  2.68392052916786
 78  -2.64204969661473   2.6430234724054
 79  -2.86334284193481  2.59745424387385
 80  -3.08442528243504  2.54700262858712
 81  -3.30508454424194  2.49147548279224
 82   -3.5250745650914  2.43070486359592
 83  -3.74411821826582  2.36455642342291
 84  -3.96191104998767  2.29293786225447
 85  -4.17812623152838  2.21580720378968
 86  -4.39242066687239  2.13318064466269
 87  -4.60444213352024  2.04513971922157
 88  -4.81383727574027  1.95183752429905
 89  -5.02026022577687   1.8535037541886
 90   -5.2233816083793   1.7504482986698
 91  -5.42289769235227  1.64306314966845
 92  -5.61853948389123  1.53182234413406
 93  -5.81008158647928  1.41727965571468
 94  -5.99735063415501  1.30006377323317
 95  -6.18023297175084  1.18087083333163
 96  -6.35868093671227   1.0604544822608
 97  -6.53271655115809  0.93961417065659
 98  -6.70243068685134 0.819183082057047
 99  -6.86797493922055 0.700017751256989
100  -7.02954274254261 0.582991668786094
101  -7.18733592330124 0.468994545000479
102  -7.34151317610523 0.358937094711323
103   -7.4921181418616  0.25375824523314
104  -7.63898734384191 0.154428169846242
105  -7.78164323189485 0.0619376194580191
106  -7.91918723178012 -0.0227371056653908
107  -8.05022559373275 -0.0987026894193004
108  -8.17288828664111 -0.165254901769273
109  -8.28502376685275 -0.222014624138407
110  -8.38462764604255 -0.269065234075059
111  -8.47047753723678 -0.307053600630224
112   -8.5429911586219 -0.337295958784158
113  -8.60598027233051 -0.362206572391929
114  -8.67094607852215 -0.38658572546161
115  -8.75396203541396 -0.415797308373028
116  -9.17717985941812 -0.53105407614939
117   -9.7886010439855 -0.517232298381826
118  -10.1845089182136 -0.171968752958838
119  -10.2940729814376 0.358799022654817
120  -10.1167436458607 0.853480394307934
121  -9.76049689569869  1.22771522993319
122  -8.90757966627139  1.57976393609118
123  -7.98896185276101  1.71126367368749
124  -7.05028431172538  1.78671573353277
125  -6.11141506530361  1.92219632661942
126  -5.18959775580647  2.16607979015696
127  -4.26937458705905  2.50159337842545
128   -3.2628014738203  2.78848077223288
129  -2.23865641535228  3.01779946321032
130  -1.17794503203726  3.09661528600725
131  -0.0926215782122344  3.74907839862406
132  0.931909770719257  3.72802682979483
133   1.96427752049352  3.62755120275953
134   2.99760095833091  3.42679147453292
135   4.02027009566721  3.13534694297186
136   5.03510355776107  2.81819402155846
137   6.05202239465362  2.55469423380703
138    7.0865367487183  2.38339384372349
139   8.14201476474147  2.25061467828874
140   9.19822876411745  2.01106664622808
141   10.1337912481144  1.44327810823129
142   10.5109965959904  0.84875107871236
143   10.6178522085028 0.154256750990695
144     10.45206827258 -0.520428749989445
145   10.1055908167206 -1.11367967770064
146   9.63861831935628 -1.66631596600422
147   9.47855945767556 -1.77156609497741
148    9.2259383948213 -1.88587198178585
149    8.9564402253029 -1.95424432841269
150   8.68119612594832 -1.97822310687773
151   8.41054362093806 -1.96349549109821
152   8.15045910707222 -1.91790611663972
153   7.90344933696139 -1.84906466253058
154   7.66978914637313 -1.76326471900251
155   7.44853593655385 -1.66525124658255
156   7.23824887067313 -1.55843555536451
157    7.0374139389629 -1.44526214568157
158   6.84463602332905 -1.32754713761164
159   6.65868948964337 -1.20672173874685
160   6.47850407187616 -1.08398215301113
161   6.30313173567965 -0.960370365670326
162   6.13171544197145 -0.83681102746484
163   5.96346674740606 -0.714124120153249
164   5.79765275895652 -0.593027167504842
165   5.63359057006506 -0.474135697754155
166   5.47064678717429 -0.357966527061576
167   5.30823998413899 -0.244945251313026
168   5.14584435632654 -0.135417205839923
169   4.98299327824642 -0.0296601014407974
170   4.81928186511852 0.0721035853433922
171   4.65436801422279 0.169695916270842
172   4.48797174687526 0.262975229200207
173   4.31987294993738 0.351830398695881
174   4.14990779446398 0.436177269665534
175   3.97796418412244 0.515956707878218
176   3.80397658097301 0.591133681263734
177   3.62792050672866 0.661696856637097
178   3.44980695520789 0.727658306815711
179   3.26967689558118 0.789053036581739
180   3.08759600311123 0.845938136572664
181   2.90364972320639 0.898391457867252
182    2.7179387512132 0.946509767623932
183   2.53057498999284 0.990406399510374
184   2.34167802717506  1.03020845333005
185   2.15137215322513  1.06605362722874
186   1.95978392072343  1.09808678407369
187   1.76704022590817  1.12645636218985
188   1.57326687702548  1.15131074110544
189   1.37858760147726  1.17279466708385
190   1.18312343571131  1.19104583289591
191  0.986992438234498  1.20619169333826
192  0.790309666537993  1.21834658401912
193  0.593187362255649   1.2276091971669
194  0.395735294514334  1.23406045554693
195   0.19806121812568  1.23776181450413
196  0.000271410038248553  1.23875401286338
197  -0.19752874650987  1.23705628582055
198  -0.395234156065965  1.23266604675016
199  -0.592739406387623  1.22555903959978
200  -0.789938187592786  1.21568995871662
201  -0.986722758749583  1.20299352800965
202  -1.18298348887506  1.18738602576313
203  -1.37860850411384   1.1687672347328
204  -1.57348347865821  1.14702278904664
205  -1.76749161301575  1.12202687975301
206   -1.9605138486521  1.09364526970364
207  -2.15242937187158  1.06173855621145
208  -2.34311646108857  1.02616560729552
209  -2.53245372955044 0.986787085370496
210  -2.72032180952899 0.943468962317383
211  -2.90660551383287 0.896085923581761
212  -3.09119649654414 0.844524557978953
213  -3.27399641799784  0.78868623587204
214  -3.45492060042679 0.728489592731236
215  -3.63390214164876 0.663872558866178
216  -3.81089643545058 0.594793910164235
217  -3.98588602855404  0.52123435974874
218   -4.1588857231929 0.443197267657344
219  -4.32994780769866 0.360709116353338
220  -4.49916726084139 0.273819985047113
221  -4.66668672690937 0.182604353094993
222  -4.83270100192432 0.0871626612239184
223  -4.99746072222433 -0.0123758678415935
224  -5.16127493320399 -0.115848648767445
225  -5.32451227550366 -0.22305303232997
226   -5.4876006920474 -0.333737459516259
227  -5.65102584492007 -0.447590983916998
228  -5.81532881728032 -0.564232304119654
229  -5.98110411853826 -0.683199918250161
230   -6.1489994637158 -0.803944967924648
231  -6.31971921899532 -0.92582742277846
232  -6.49403372034795 -1.04811424257393
233  -6.67279666674226 -1.16997500307142
234  -6.85697193020743 -1.29046626643095
235  -7.04766826431195 -1.40849079261628
236  -7.24617335861331 -1.52271176733806
237  -7.45396430852073 -1.63139733628873
238  -7.67264816448247 -1.73217381693772
239   -7.9037610005432 -1.82169303516802
240   -8.1483491780634 -1.89528819780648
241  -8.40629103830824 -1.94679393281035
242  -8.67536476687186 -1.96879292649957
243  -8.95009174379483  -1.9536303732334
244  -9.22078728249659 -1.89564247109656
245  -9.47694343730475 -1.79313995455285
246  -9.64627666163375 -1.69333668493881
247  -10.1423244396365 -1.17274453270318
248   -10.522377372763 -0.600513415943813
249  -10.7244216664938 0.0636330870435064
250  -10.6520565633178 0.761950700326315
251  -10.3009354941489   1.3718646460038
252  -9.38456708275863  1.96954356363657
253  -8.33155567542933  2.22546833716112
254  -7.27555328632581  2.35986511539511
255  -6.23966800755545   2.5236459457111
256  -5.22133834818024  2.77699747118741
257  -4.20645633488462  3.08698798686099
258  -3.18698396848847  3.37482478778862
259  -2.15193887273561  3.59340115075482
260  -1.12777928895783   3.7025397912445
