// Id               X                Y
  1  -0.0858881127924367  3.26978287895272
  2   1.00798159120242  3.27073340567012
  3   2.09828021079726  3.20198900271111
  4   3.17146914505854  3.06547412751922
  5    4.2084635406051  2.83510588150606
  6   5.13506533797955  2.49388937553841
  7   6.05075725398689  2.21207082286818
  8   6.99182052262198   2.0269219268634
  9   7.94008335898307  1.88677059905151
 10   8.84962713394436  1.65214543917581
 11   9.61642158895923  1.12032330524397
 12   9.81618973911491 0.643793510199952
 13   9.75069965882542 0.129109551291985
 14   9.40004198586417 -0.257799557377138
 15   8.89315008515843 -0.369211438316847
 16   8.40520638000133 -0.210723372582777
 17   8.02456127978455 0.0304101065158066
 18   7.96054301334424 0.0743441362166206
 19   7.90125102710626 0.115850963579817
 20    7.8395213405714  0.15992224444707
 21   7.77134803743074 0.209521759279625
 22   7.69611375133424 0.265388455602463
 23   7.61399831572378 0.327618783916792
 24   7.52535847378414  0.39614802325166
 25   7.43055427893227  0.47081819227562
 26   7.32990542721102  0.55140208177065
 27   7.22366815512936 0.637605094593338
 28   7.11202436375898 0.729066864096423
 29   6.99507752470037 0.825362516697675
 30   6.87285422322658 0.926004476927226
 31   6.74531018021294  1.03044490833669
 32   6.61233971171415   1.1380788981576
 33   6.47378760007862  1.24824852878555
 34   6.32946231624467   1.3602480371101
 35   6.17914941772494  1.47333034150013
 36   6.02262365223307  1.58671534812432
 37   5.85965754105202  1.69960076631697
 38   5.69002200129208  1.81117714160084
 39    5.5134662982841  1.92065266364299
 40    5.3296171926407  2.02731617754677
 41       5.1366443217  2.13121354208117
 42   4.93429807679325  2.23141000285544
 43   4.72726346976757   2.3249200438603
 44   4.51649048592456  2.41114348541778
 45   4.30280838759991  2.48978606602877
 46   4.08709167557426  2.56075415401208
 47   3.87058417506438  2.62404496123676
 48   3.65597315580671   2.6795150549415
 49   3.44256586178674  2.72806656695472
 50   3.23025264594737  2.77037266534472
 51   3.01914421292211  2.80702274901713
 52   2.80936618533633  2.83857785821778
 53   2.60102197003614  2.86557467020721
 54   2.39418144929569  2.88852278641958
 55   2.18887799268269  2.90790100100154
 56   1.98510913006259  2.92415396804963
 57   1.78283903440348  2.93768967462928
 58   1.58200188352105  2.94887777907002
 59   1.38250557076539   2.9580487309845
 60   1.18423544868166  2.96549353003939
 61   0.98705792039221  2.97146396185765
 62  0.790823779645767  2.97617315239048
 63  0.595371259345396  2.97979629653871
 64  0.400528788891174  2.98247143686299
 65  0.206117488320003  2.98430019042837
 66  0.0119534456935726  2.98534834422558
 67  -0.182150163885391  2.98564626125029
 68  -0.376381051982414   2.9851890599338
 69  -0.570925813762838  2.98393654937606
 70  -0.765967877494425  2.98181292216753
 71  -0.961685337352761   2.9787062260517
 72  -1.15824860451488   2.9744676558099
 73  -1.35581781952738  2.96891072793323
 74  -1.55453998214725  2.96181042296591
 75  -1.75454577542268  2.95290240343748
 76   -1.9559460917218  2.94188243784909
 77  -2.15882831401761  2.92840618087369
 78  -2.36325247250939  2.91208947262358
 79  -2.56924749575006   2.8925093184686
 80  -2.77680792912367  2.86920568297777
 81  -2.98589175429898  2.84168415249208
 82  -3.19642045811696   2.8094193322946
 83  -3.40828377159938   2.7718583690555
 84  -3.62135581632716  2.72842248103475
 85  -3.83555296603518  2.67849678384194
 86  -4.05136462578269  2.62127741036569
 87  -4.26857166409809  2.55608137908383
 88  -4.48448336070079  2.48311507159319
 89   -4.6980883825702  2.40235779559456
 90  -4.90851840047438  2.31394919012583
 91  -5.11490398238793  2.21826005169145
 92   -5.3159890781006  2.11612673691014
 93  -5.50594275703723  2.01136559933422
 94  -5.68776315051052  1.90346982334011
 95  -5.86228739643269  1.79291508088177
 96  -6.02983308949408  1.68045987865068
 97  -6.19063759725111  1.56691858195641
 98   -6.3449229903565  1.45311550140713
 99  -6.49290854071278   1.3398633437835
100   -6.6348072371423  1.22794928890881
101   -6.7708157496623  1.11812474497941
102  -6.90110159552323  1.01109742543779
103  -7.02578958567242 0.907525121950054
104   -7.1449490338337 0.808010801027034
105  -7.25858299187196 0.713098771688677
106  -7.36662065720963 0.623271680521613
107  -7.46891428065961 0.538948336444348
108  -7.56524122619245 0.460481413917401
109  -7.65531478589545  0.38815693902505
110  -7.73880136066172 0.322185875130225
111  -7.81537376009998 0.262695057944053
112  -7.88484821961998 0.209621769094966
113  -7.94784415307489 0.162288389923853
114  -8.00829010135583 0.117605020306044
115  -8.07339809376588 0.070314955879822
116  -8.44747798766273 -0.183531078123637
117  -8.92919499636798 -0.361627419368076
118  -9.44072096934628 -0.275395387514854
119  -9.81183395324296 0.0911095285678004
120  -9.90545541782686 0.600531549261668
121  -9.72979349126041  1.08543995284657
122  -8.98357754763875  1.64400282618733
123  -8.08139189262383  1.89732982975588
124  -7.13817562470052  2.04609967031309
125  -6.20059022502055  2.23128830359999
126  -5.28709733345355  2.50753403486534
127  -4.37252183273185   2.8374963083982
128   -3.3497294190445  3.06728821855139
129   -2.2835420525143  3.20130608512052
130  -1.18479112335118  3.22391380097275
131  -0.0700615737734895  3.85661678484944
132    1.0085867257573  3.85615084315233
133   2.08563204082234  3.78782043590838
134   3.15790928915713  3.65169527316826
135   4.21650852404532  3.42182692506214
136    5.2463129405589  3.07772446923805
137   6.28623489959814  2.77045630306267
138   7.34403757108055  2.52873463056436
139    8.4089004574436  2.28784648118434
140   9.42765835216297  1.86393904078525
141   10.1499655213157  1.02007447625589
142   10.2455127881713 0.307878190237553
143   9.97760636843091 -0.356345249068077
144   9.42057373801634 -0.800101858392396
145   8.77372509074312 -1.08487754649795
146    8.4711967342257 -1.76062002461584
147   8.33751138756498 -1.91097237118839
148   8.12045407477157 -1.92096336061977
149   7.90427348018461 -1.89931055036128
150   7.69274540889458 -1.85338257296195
151    7.4874266629842 -1.79002429759493
152   7.28877916500534 -1.71306692635432
153   7.09683704312418 -1.62516849436919
154   6.91137737966303 -1.52846915749304
155   6.73201121848475 -1.42477216265322
156   6.55824784454292 -1.31561838240225
157   6.38953869428692 -1.20233872765015
158   6.22530590416074 -1.08609866533573
159   6.06496087383879 -0.967935889389222
160    5.9079173148431 -0.848790956646504
161   5.75360191810547 -0.729531261636194
162   5.60146457600964 -0.610969141172761
163   5.45098920837066 -0.493874996368472
164   5.30170567234209 -0.378986225410814
165   5.15320296214558 -0.267012604377512
166   5.00514397002013 -0.158638625091799
167   4.85728275324685 -0.0545232659434423
168    4.7094876243101 0.0447021647436452
169   4.56178246220457 0.138436315040245
170   4.41446776278477 0.226092426492033
171   4.26944986547163  0.30643775519329
172   4.12713068020546 0.379220375375812
173   3.98298338048725 0.446523620989724
174   3.83651284312059 0.508492728495975
175   3.68747107069079 0.565240334603709
176    3.5356333320437 0.616922908879768
177    3.3804276820071 0.663816584501398
178   3.21984509170807 0.706557443892836
179   3.05531090016061 0.744951194442008
180    2.8876014908555 0.779088049529176
181   2.71719537148623 0.809185852166146
182    2.5444737024106 0.835515361347889
183   2.36975654128002 0.858374575717322
184   2.19331728181155 0.878073255031301
185   2.01539132664943  0.89492202048432
186   1.83618254620428 0.909224252096219
187   1.65586858344913 0.921269963023194
188   1.47460537870935 0.931331161429958
189   1.29253106835667 0.939658357790939
190   1.10976933817436 0.946477958277752
191  0.926432290044208 0.951990340803211
192  0.742622876266827 0.956368452678101
193  0.558436956954697 0.959756802935948
194  0.373965038012379 0.962270750527676
195  0.189293748794813 0.963996013061995
196  0.00450711936889107 0.964988340481124
197  -0.180312282417528 0.965273314814371
198  -0.365082293845706 0.964846251716745
199  -0.549720120013243 0.963672192647317
200  -0.734141255969367 0.961685989047203
201  -0.918258307651612  0.95879249251935
202  -1.10197965052688 0.954866878576254
203  -1.28520786441837 0.949755146797868
204  -1.46783788284455 0.943274858028709
205  -1.64975479554952 0.935216190356563
206  -1.83083124382675 0.925343420927596
207  -2.01092434917516 0.913396971215326
208  -2.18987211456953 0.899096190752432
209  -2.36748922780988 0.882143101599171
210  -2.54356216101614 0.862227390020023
211  -2.71784335305435 0.839033031426488
212  -2.89004394494397 0.812247123367019
213  -3.05982352845185 0.781571958607324
214  -3.22677141864294 0.746742821568655
215  -3.39035067957881 0.707560569670271
216  -3.54936928512098 0.664052383528963
217  -3.70330888591932 0.616222355674813
218  -3.85417390936129 0.563419453185994
219  -4.00228778048449 0.505437292362057
220  -4.14786191795264 0.442130403479931
221  -4.29119146545617 0.373381144909739
222  -4.43310818093997 0.298905250374724
223  -4.57935750415867 0.215964965351796
224  -4.72676206860264 0.126254078002501
225   -4.8744281012394 0.0305262081110529
226  -5.02214736476219 -0.0706193184216278
227   -5.1699431671974 -0.176562238334078
228  -5.31798500174542 -0.286653585781476
229  -5.46655372557425 -0.400217175827932
230  -5.61602022902423 -0.516550473958885
231  -5.76682893599567 -0.634923178729309
232  -5.91948365113995 -0.75457276467245
233  -6.07453499526676 -0.874696372773677
234  -6.23256910503481 -0.994438373532909
235   -6.3941971584148 -1.11287279255512
236  -6.56004479881914 -1.22897968138783
237  -6.73073968461749 -1.34161456556126
238   -6.9068941969389 -1.44947043221258
239  -7.08907897202429 -1.55103216044438
240   -7.2777820332355 -1.64452186599545
241  -7.47334925008121 -1.72782005777978
242  -7.67590319136154 -1.79827644769947
243  -7.88519884117246 -1.85204030475264
244  -8.10002403444222 -1.88216254167552
245  -8.31696260467166 -1.88093998449407
246  -8.45575747366418 -1.73579218939265
247  -8.78361835358269 -1.07229460311448
248  -9.44271153124526 -0.817837897142056
249  -10.0202740437243 -0.401656477917558
250  -10.3195760634334 0.248796414683217
251  -10.2550349137644 0.964548436297246
252  -9.56774915066127  1.83729294293929
253  -8.55959019376693  2.28725613118979
254  -7.49750920734433  2.54303968267908
255  -6.43993019513477  2.78838538476468
256  -5.39851286137675  3.09243270966508
257  -4.36404991179775  3.42510782984873
258  -3.30340974937092   3.6524649628773
259  -2.22923829392371  3.78405495820317
260  -1.15025664494511  3.81199359520652
