// Id               X                Y
  1  -0.0856783539078913  1.88433170847294
  2  0.973119703578874  1.90171888454133
  3    2.0427365519291  1.94994909060872
  4   3.09548711202689  1.94105823873638
  5   4.13783887190587  1.86484678644632
  6   5.05810579938873  1.72852677196625
  7   5.98414839560899  1.67684033359266
  8    6.9105901808922   1.7432579339261
  9   7.83277878209412  1.86144240061566
 10   8.75469515949632  1.87614398322548
 11   9.61866615803807  1.56481514177126
 12   9.93901925749882   1.1692094878876
 13   10.0387774763897  0.66730358100199
 14   9.85714922918881 0.180417807187704
 15   9.44166593484012 -0.127791332855143
 16   8.92313575956021 -0.181071839500248
 17   8.56924516369444 -0.127839245308742
 18   8.46640664778019 -0.10362389988264
 19   8.40449594345663 -0.0872447990074526
 20   8.34641371528475 -0.070657322429724
 21   8.27243171376028 -0.0479005278933617
 22   8.17823009827857 -0.0163440059003767
 23   8.06532661350333 0.0250564124056078
 24   7.93737340358013 0.0763151124522136
 25   7.79826368136877 0.136693477173336
 26   7.65109834065474 0.205060065965641
 27   7.49790544680939 0.280172148362865
 28    7.3397993323303 0.360812346735502
 29   7.17725945234064 0.445822128059944
 30   7.01038108431927 0.534088108465807
 31   6.83906314071175 0.624516937697951
 32   6.66313878464744 0.716016879416707
 33    6.4824626118944 0.807493076855968
 34   6.29696646253577 0.897856969068809
 35   6.10669240168912  0.98604689551842
 36    5.9118084301893  1.07105554249563
 37   5.71261060222996  1.15195974316656
 38   5.50951431913655  1.22794869303849
 39   5.30303727823047   1.2983475408304
 40   5.09377651924555  1.36263434104436
 41   4.88238197909597  1.42044935435388
 42   4.66952882643015  1.47159655083108
 43   4.45589058502877  1.51603785561341
 44   4.24211469889449  1.55388116719172
 45   4.02880177914556  1.58536349105574
 46   3.81648933562251  1.61083068908857
 47   3.60564036241936  1.63071536836477
 48   3.39663674437944  1.64551433982932
 49   3.18977710927522  1.65576688805371
 50   2.98527849216189  1.66203483450754
 51   2.78328101857181  1.66488508113898
 52    2.5838547525982  1.66487502281857
 53   2.38700788218795  1.66254094661741
 54   2.19269550564383  1.65838931455357
 55   2.00082841523827  1.65289066524579
 56   1.81128142209565  1.64647576969787
 57   1.62390091188658  1.63953363041509
 58   1.43851145025586  1.63241090997557
 59   1.25492136308826  1.62541240228042
 60   1.07292729745971  1.61880220495748
 61   0.89231782571042  1.61280530484503
 62  0.712876190953997  1.60760934282245
 63  0.534382311929717  1.60336637476283
 64  0.356614172978591  1.60019448953408
 65  0.179348725231389  1.59817918191199
 66  0.00236242130004162  1.59737440827619
 67  -0.174568499458971  1.59780327703217
 68  -0.35166786276624  1.59945834523342
 69  -0.529159438961933  1.60230150945694
 70  -0.707266741475422   1.6062634942874
 71  -0.886212633457328  1.61124295749416
 72  -1.06621862768321  1.61710524883997
 73  -1.24750375949647  1.62368088109745
 74  -1.43028290757559  1.63076379880087
 75  -1.61476443498033  1.63810956378149
 76  -1.80114702633442  1.64543361734582
 77  -1.98961560997727  1.65240982686626
 78  -2.18033628088037   1.6586695779725
 79  -2.37345018565852  1.66380172891876
 80  -2.56906639915172  1.66735379507518
 81  -2.76725391530251  1.66883477018694
 82  -2.96803299307495  1.66772000594049
 83  -3.17136623643635  1.66345854984847
 84  -3.37714993604953  1.65548327118279
 85  -3.58520634347324  1.64322397622798
 86  -3.79527766517304  1.62612352403556
 87  -4.00702262926707  1.60365670743019
 88  -4.22001646931832  1.57535137683516
 89  -4.43375506923167  1.54081098173961
 90  -4.64766381453011  1.49973741784748
 91  -4.86111140373516  1.45195282990813
 92  -5.07342850598054  1.39741886021265
 93  -5.28393073008104  1.33625177485657
 94  -5.49194491939104  1.26873196607307
 95  -5.69683732793906  1.19530654519598
 96  -5.89804179061898  1.11658414099684
 97  -6.09508560480124  1.03332163840224
 98   -6.2876105267394 0.946403452280764
 99  -6.47538606495353 0.856815004771198
100  -6.65831206264491 0.765613268149692
101  -6.83640721344657 0.673898372465337
102   -7.0097793244703 0.582791088583641
103  -7.17857145729822 0.493421083271562
104   -7.3428753555535 0.406929609853267
105  -7.50260025847652  0.32448691387636
106  -7.65728356327638 0.247318005684727
107  -7.80583759625464 0.176718993195526
108  -7.94626628926077 0.114027644986082
109  -8.07549795540394 0.0604892514655605
110  -8.18965563900133 0.0169676095625862
111  -8.28508849117326 -0.016436724842702
112  -8.36023620402555 -0.040706727791469
113  -8.41934782250361 -0.0584850534811457
114  -8.48233255219678 -0.0761206993768412
115  -8.58565993928522 -0.102041867883815
116  -8.93885538852545 -0.160953295043855
117  -9.45865881191411 -0.11654181238648
118  -9.87952084770868 0.185632233516258
119  -10.0671009226596 0.670934653013444
120  -9.97101368681976   1.1740071018497
121   -9.6519110155954  1.57133887660489
122  -8.78722489229846  1.88422500983182
123  -7.86275834776465  1.86986447251306
124  -6.93555410398685  1.75071699007867
125  -6.00304227126341  1.68265599326704
126  -5.07092130636494  1.73319309693108
127  -4.14431719006211  1.87039666239775
128  -3.07690902266113  1.94820024817491
129  -2.07645056538956  1.94010830685849
130  -1.05970710385822  1.88149977644471
131  -0.0449982281690287  2.47417313946726
132  0.924319282679387  2.49241801838937
133   1.89671574086671  2.52121361996653
134    2.9224571072433  2.50740049446892
135   3.95793186098696  2.43864230568237
136   4.99715617738679  2.33525031680646
137   6.03108231064648  2.28587955480385
138   7.07491927493236  2.33481434514106
139   8.13794592460522  2.39772936651403
140   9.21625282236204  2.28223934933182
141   10.1531310192343  1.71862354083528
142   10.4814113416458  1.09605460118413
143   10.4856711362801 0.393181412528499
144   10.1789732918537 -0.235351562662082
145   9.75691218263746 -0.784959083431543
146   9.48235094936554 -1.45501302984424
147   9.32838589857192  -1.6192499965134
148   9.06561142199667 -1.78402198434152
149   8.76221152789368 -1.88038102558945
150   8.44934613452727 -1.91171797558984
151   8.15084432680425 -1.89380930219632
152   7.87543969658346 -1.84412250051457
153   7.62341923294271 -1.77555999039724
154   7.39147127017636 -1.69613482165568
155   7.17544883049448 -1.61038263575284
156   6.97173141619577 -1.52087093559486
157   6.77760578353876 -1.42922949182493
158   6.59114989573167 -1.33668655855809
159   6.41098945829316 -1.24429616736489
160   6.23608631591501 -1.15301287696088
161   6.06559417878158 -1.06370209793756
162   5.89877313686181 -0.977129415259324
163   5.73494521858203 -0.893948756673386
164   5.57347513299968 -0.814697083932609
165   5.41376477785733 -0.739797044481094
166   5.25525431459672 -0.669566072121882
167   5.09742575455038 -0.604229346194616
168   4.93980698740117 -0.543933976919301
169   4.78197526749053 -0.488762283436831
170   4.62355969428309 -0.438742763293309
171    4.4642424602815 -0.393858112652715
172   4.30375876589823 -0.354050309730663
173   4.14189539678442 -0.319223246319761
174   3.97848804996253 -0.289243664543444
175   3.81341758155339 -0.263941246776899
176   3.64660542393718 -0.243108654053703
177   3.47800847502459 -0.226502156178759
178   3.30761378845926 -0.213843288322153
179    3.1354333852924 -0.204821743658841
180   2.96149946478895 -0.199099503545961
181   2.78586022133335 -0.196316041170205
182   2.60857638838922 -0.196094325790373
183   2.42971854379676 -0.198047304969134
184   2.24936513613077 -0.20178454375983
185   2.06760113743254 -0.206918738625708
186   1.88451719590796 -0.213071883932919
187   1.70020915120012 -0.219880935828337
188    1.5147777800198 -0.227002881533419
189    1.3283286558877 -0.234119175135417
190   1.14097202860536 -0.24093954113317
191   0.95282265301047 -0.247205174280713
192  0.763999519948903 -0.252691380246266
193  0.574625463601455 -0.257209708532124
194  0.384826637501588 -0.260609629312701
195  0.194731866465409 -0.262779801385557
196  0.0044718932507892 -0.26364897090478
197  -0.185821452730955 -0.263186531149901
198  -0.376016131650399 -0.261402763076693
199  -0.565980778360712 -0.258348765322517
200  -0.755585559645965 -0.254116071049372
201  -0.944702968674905 -0.248835937779208
202  -1.13320852599335 -0.242678285507738
203  -1.32098136335647 -0.23585024829319
204  -1.50790467661267 -0.228594295843081
205  -1.69386604694616 -0.221185875322322
206   -1.8787576461995 -0.21393052104096
207  -2.06247636163793 -0.207160382650664
208  -2.24492389789553 -0.201230133164893
209  -2.42600693787351 -0.196512238849037
210  -2.60563746811219 -0.193391605827154
211  -2.78373339462848 -0.192259664105096
212  -2.96021958822441 -0.193508007582084
213  -3.13502949870632 -0.197521774387076
214   -3.3081074600065 -0.204673017455852
215  -3.47941176878512 -0.215314368464548
216  -3.64891855671226 -0.229773323771978
217  -3.81662639504087 -0.248347463056906
218  -3.98256147839598 -0.271300837295733
219  -4.14678314618384 -0.298861627542708
220  -4.30938942904898 -0.331220985407145
221   -4.4705222661745 -0.368532738083078
222  -4.63037203346165 -0.410913404592166
223  -4.78918105361808 -0.458441764479157
224  -4.94724582394874 -0.511157092468918
225  -5.10491779179678 -0.569055175621061
226  -5.26260262753269 -0.632081417433915
227  -5.42075809191685 -0.700120748605182
228  -5.57989078637688 -0.77298471525425
229  -5.74055237210353 -0.850396949816094
230  -5.90333638924946 -0.931979111597609
231  -6.06887785278876 -1.01724007966851
232  -6.23785968148875 -1.10557133771087
233  -6.41103302072915  -1.1962505760052
234   -6.5892626366434 -1.28845270655757
235  -6.77361301553888 -1.38126132724698
236  -6.96549291184972  -1.4736615224258
237  -7.16686756333234 -1.56447118444773
238    -7.380505393025 -1.65212261671504
239  -7.61010457720305 -1.73413499623817
240  -7.85993420047181 -1.80608195321695
241   -8.1335046546408  -1.8600521202032
242  -8.43086295835212 -1.88316401929472
243  -8.74373540372962 -1.85774107961354
244  -9.04850499409039 -1.76746226404916
245  -9.31438348561887  -1.6079974960027
246  -9.47214600131066 -1.44591022801563
247  -9.75905446007805 -0.780737312127489
248  -10.1905381552396 -0.23830593049494
249  -10.5070878062578 0.385686855964193
250  -10.5120832902893  1.08907156577591
251  -10.1898097228275  1.71545601156316
252  -9.25484056557852  2.28393271087298
253  -8.17627795433786  2.40171022813809
254   -7.1137370987034  2.33866673676009
255  -6.07294243548838   2.2897790617299
256  -5.04719118874268  2.34140963447071
257   -4.0154188361718  2.44946852493903
258  -2.99695670058493  2.53106287303733
259  -1.98929811683222  2.52468993808798
260  -1.01517251213843  2.48340203190389
