// Id               X                Y
  1  -0.0841140275916172  1.02159874421538
  2  0.960753337790752 0.989662576939826
  3   1.99475766586918  1.00676539424876
  4   2.96608149921769  1.09539644011142
  5   3.91575806735131  1.21905291710124
  6   4.85324794591939  1.35248436500523
  7   5.78278802895039  1.45146353264996
  8   6.70358052219083  1.44285236721925
  9   7.58425872598021  1.22903165575043
 10   8.32157626047309 0.726489064352622
 11   8.75776106095225 -0.0545421562467282
 12   8.77188977204214 -0.548868162655812
 13    8.5896418421674 -1.02521530564851
 14   8.19512534349889 -1.37250030796124
 15   7.68825099682799 -1.44725361440088
 16   7.11614036558962 -1.11125761762328
 17   6.57216126290311 -0.702727705847738
 18   6.46945589280444 -0.654773090605376
 19   6.38005408915508 -0.618383895676775
 20   6.29528399127083 -0.587727784887275
 21   6.21253628934545 -0.56076520636018
 22   6.12798983581849 -0.535599220935163
 23   6.03866901047973 -0.510946065212081
 24   5.94313828321487 -0.486042840718502
 25   5.84132243079833 -0.460416086218651
 26   5.73396266573634 -0.433720018331751
 27   5.62205617846976 -0.405676310295425
 28   5.50651413325703 -0.376079286866969
 29   5.38804826929627 -0.344815841822448
 30   5.26717801467262 -0.311871770071692
 31   5.14427023472894 -0.277320647519945
 32   5.01957611025081 -0.241302302802196
 33   4.89325926155949 -0.203998879868058
 34   4.76541767336068 -0.165613793823223
 35   4.63610194618203 -0.126355941576485
 36   4.50533090089155 -0.0864294589356973
 37   4.37310461678115 -0.0460281920326935
 38   4.23941470205222 -0.00533362857347117
 39    4.1042517159025 0.0354849561270127
 40   3.96760993287396 0.0762691574521888
 41   3.82948988687672 0.116869635910601
 42   3.68989927350182 0.157144311507223
 43   3.54885280599985 0.196956815120808
 44   3.40637153130699 0.236175308472199
 45   3.26248197913338 0.274671694476973
 46   3.11721537405592  0.31232118229608
 47   2.97060702086772 0.349002148920265
 48   2.82269588811321 0.384596223004976
 49   2.67352436843551 0.418988525333345
 50   2.52313816556123 0.452068000577277
 51   2.37158626100455 0.483727797464887
 52   2.21892091318824 0.513865654483639
 53    2.0651976581585 0.542384276485401
 54   1.91047528692498 0.569191678058975
 55   1.75481579146355 0.594201499815725
 56   1.59828426893138 0.617333282658534
 57   1.44094879087097 0.638512717896095
 58   1.28288023385899 0.657671858351154
 59   1.12415208160335 0.674749314486193
 60  0.964840198052215 0.689690415609473
 61  0.805022580516136 0.702447363627425
 62  0.644779091279921 0.712979353351547
 63  0.484191176884869 0.721252689333422
 64  0.323341571978339 0.727240868107039
 65  0.162313995413923 0.730924658433538
 66  0.00119283768982346  0.73229214478579
 67  -0.159937156265365 0.731338769092858
 68  -0.32099120700195 0.728067334235421
 69  -0.481884820729424 0.722488005733364
 70  -0.642534107359127 0.714618275194093
 71  -0.802856094385922 0.704482921954138
 72  -0.962769032725963 0.692113937997452
 73  -1.12219269526547 0.677550450779803
 74  -1.28104866058286 0.660838611560477
 75  -1.43926058488132 0.642031480190658
 76  -1.59675445299729   0.6211888766734
 77  -1.75345881001265 0.598377225290042
 78  -1.90930496453903 0.573669364156837
 79   -2.0642271639766 0.547144339932468
 80  -2.21816273184165 0.518887163923029
 81  -2.37105217043187 0.488988544127785
 82  -2.52283922190676 0.457544575464139
 83  -2.67347089788284 0.424656402564236
 84  -2.82289748508189 0.390429848797027
 85  -2.97107255152333 0.354975034831493
 86  -3.11795298381181 0.318406000824504
 87  -3.26349910261022 0.280840374167873
 88  -3.40767490378252 0.242399125123439
 89  -3.55044847663377 0.203206475152596
 90  -3.69179262303268 0.163390023865497
 91  -3.83168565622598 0.123081169847458
 92  -3.97011227376144 0.0824158860007596
 93  -4.10706427927364 0.0415358891478257
 94  -4.24254078325993 0.000590188401996162
 95  -4.37654737522916 -0.0402630905964679
 96  -4.50909366395322 -0.0808548517178477
 97  -4.64018859131248 -0.121003596865896
 98  -4.76983305968081 -0.160515139623148
 99  -4.89800965831843 -0.199184482289462
100  -5.02466955358998 -0.236801116150112
101  -5.14971674817803 -0.273159037293997
102  -5.27298966625325 -0.308072374973069
103  -5.39423911335379 -0.341396428194741
104  -5.51310016047678 -0.37305183763817
105  -5.62905532061881 -0.403046633596854
106  -5.74139436407741 -0.431488086526355
107  -5.84920513741449 -0.458577064817368
108  -5.95148264100616 -0.484588414384143
109  -6.04746725311276 -0.509865640150327
110  -6.13720841709566 -0.534881510190045
111  -6.22212086974636 -0.560402236516243
112  -6.30517884032457 -0.587723934791212
113  -6.39023016634793 -0.618770623358097
114  -6.47991567193472 -0.655615756210862
115  -6.58282547133074 -0.704112711469944
116  -7.12594432372022 -1.11574929371918
117  -7.69677251733462 -1.45427769217985
118  -8.20449484044773 -1.38132142501812
119  -8.60026950168078 -1.03424230898102
120  -8.78244153011302 -0.557353738699344
121  -8.76685300154347 -0.0627804532796671
122    -8.325773607804 0.715953807933801
123  -7.58374683279192  1.21248862162551
124  -6.69993116406938   1.4184072739234
125  -5.77679603941544  1.41919711610861
126  -4.84388338880228  1.31342550239224
127  -3.90053272396963  1.17455350657489
128  -2.94535400031266  1.04996641613353
129  -1.98592644645507 0.966443676024188
130  -1.03520495667057 0.953664081314861
131  0.147136847032855  1.54961111403096
132     1.078493896538  1.57458165329465
133   2.00681618940229  1.62744933987494
134    2.9405554548444  1.71771744669969
135   3.88452088381689    1.839778552196
136   4.89452490850611  1.97181412464543
137   5.95316812089607  2.04829687961429
138   7.03326322694767  1.96900240060301
139   8.07307187589286  1.61238804808122
140   8.90998215851549 0.881588916479313
141   9.27355006023182 -0.166445275893325
142   9.16317340248808 -0.877925125608504
143    8.7972635248666 -1.49350375336579
144   8.24895283981378 -1.94428735557108
145   7.59837120651249 -2.22145323998883
146    6.8636609365334 -2.35407025685106
147   6.73913108277791 -2.35981636561247
148   6.59194235770596 -2.36059729988557
149    6.4441478731991 -2.35526293758302
150   6.29659127860821 -2.34427911607442
151   6.14956416175712 -2.32818502070602
152    6.0035270054506 -2.30760282644636
153   5.85884141387516 -2.28319091434494
154   5.71566455271983 -2.25557610260266
155   5.57396970717069 -2.22530795486904
156   5.43361573713848  -2.1928436246043
157   5.29441773092844 -2.15855520840991
158   5.15619320972508 -2.12274652619341
159   5.01878220675865 -2.08567036209451
160   4.88205127154342 -2.04754274838709
161   4.74589064351617 -2.00855389758506
162   4.61020960549603 -1.96887610856565
163   4.47493194346567  -1.9286693527532
164   4.33999215604554 -1.88808486156791
165   4.20533240850168 -1.84726750279936
166   4.07090031032828 -1.80635688896431
167   3.93664722663909  -1.7654882054786
168   3.80252731941575 -1.72479207307854
169   3.66849682394443 -1.68439496034962
170   3.53451401821959 -1.64441844548109
171   3.40053902365936 -1.60497992527869
172   3.26653436015471 -1.56619140178681
173   3.13246481207949 -1.52816093878044
174   2.99829830881263 -1.49099071469666
175   2.86400549414374 -1.45477961468672
176   2.72956084826876 -1.41962004537821
177   2.59494174193349 -1.38560215090008
178   2.46012986882567 -1.35280872101422
179   2.32510967188626 -1.32132168127789
180   2.18987021405755 -1.29121430913167
181   2.05440292508397 -1.26256079084118
182   1.91870401350715 -1.23542488544774
183   1.78277153215475 -1.20987341521372
184   1.64660835473217 -1.18596051829051
185   1.51021862897612 -1.16374589849252
186   1.37361123108903 -1.14327392584878
187   1.23679577125446 -1.12459729185957
188   1.09978632216173 -1.10775046953934
189  0.962597243945112 -1.09277909927842
190  0.825246881506042 -1.07970770651395
191   0.68775355952819 -1.06857469710688
192  0.550138878918646 -1.05939471827209
193  0.412424271479262 -1.05219862674109
194  0.274633518156612 -1.04699139797859
195  0.136790228691671 -1.04379592082442
196  -0.00108073623481645 -1.04260783487477
197  -0.138954586254921 -1.04344158087459
198  -0.276806472243654 -1.04628389444443
199  -0.414611478109036 -1.05114028174744
200  -0.552345821834109 -1.05798905270736
201  -0.689985555264125 -1.06682634218116
202  -0.827508964685789 -1.07762250339587
203  -0.964894175403904 -1.09036396242866
204  -1.10212247842498 -1.10501352135681
205  -1.23917515648246 -1.12154769187302
206  -1.37603737331215 -1.13992202570885
207  -1.51269459606362 -1.16010305314261
208  -1.64913666041552 -1.18203924600185
209  -1.78535415581546 -1.20568720647698
210  -1.92134231924102 -1.23098835442594
211  -2.05709768509754 -1.25788949508799
212   -2.1926215439368 -1.28632488224075
213  -2.32791705792756 -1.31623167254089
214  -2.46299212242716 -1.34753670298081
215  -2.59785703219172 -1.38016758353253
216  -2.73252667814488 -1.41404335587259
217  -2.86701874080014 -1.44908208597528
218  -3.00135522376894 -1.48519453723204
219  -3.13556107226008 -1.52228911898002
220  -3.26966509290842 -1.56026778595658
221  -3.40369887020269 -1.59902912003398
222  -3.53769718107244 -1.63846581340372
223  -3.67169714051139 -1.67846654268236
224  -3.80573832430558 -1.71891455722683
225  -3.93986222808343 -1.75968884340942
226  -4.07411245650877 -1.80066344238444
227    -4.208534758886 -1.84170816186105
228  -4.34317774469466 -1.88268818743649
229  -4.47809384475964 -1.92346421974654
230  -4.61334099714566  -1.9638916814065
231  -4.74898487388052 -2.00381963739464
232  -4.88510192873112 -2.04308847233495
233  -5.02178319263682 -2.08152635733694
234  -5.15913882203588 -2.11894373080854
235  -5.29730278013844   -2.155125453871
236   -5.4364357818368 -2.18981992997201
237  -5.57672159879598 -2.22272482898054
238  -5.71834754307181 -2.25346973714311
239  -5.86145885043439 -2.28159899933874
240  -6.00608800120252 -2.30656360726316
241  -6.15208414692423 -2.32773541380462
242  -6.29909066170928  -2.3444522955579
243  -6.44664896280564 -2.35608656799209
244  -6.59446833322245 -2.36209393806706
245   -6.7417185723993 -2.36200074653351
246  -6.86650360873862 -2.35683567494133
247  -7.60231055775787  -2.2277602589583
248  -8.25495345001909  -1.9531602694345
249  -8.80538237748654 -1.50362019298936
250  -9.17252017710559  -0.8878515145524
251  -9.28227622390849 -0.175464254398323
252  -8.91403682560178 0.871990935328699
253  -8.07117400286399  1.59767909136178
254  -7.02707374216053  1.94615116174815
255  -5.94413104273049  2.01683662736742
256  -4.88146509068601  1.93290639887952
257  -3.85001861246072  1.79361162601052
258  -2.87988144229492   1.6689849821174
259  -1.91554716435158  1.58407034639578
260  -0.890944739599183  1.54625406380845
