// Id               X                Y
  1  -0.00229260789736635 -0.614138116792698
  2  0.970415020385211 -0.529073229534343
  3   1.89880545615814 -0.286855617030999
  4   2.76537273473957 0.0782652048756344
  5   3.57401334025873 0.522473296617533
  6   4.34462107825745  1.00046558109684
  7   5.10237127847434  1.47411909123081
  8   5.86906239861219    1.913655350699
  9   6.66814769551932  2.27770144371632
 10   7.52593762000903  2.45930802626221
 11   8.37652694966559   2.2375558105723
 12   8.67981187345951  1.87486403404608
 13   8.77591989098713  1.41551811573871
 14   8.64671807687091 0.965596457366298
 15    8.3485697950886 0.601880473290409
 16    7.9622013342144 0.331796480188565
 17   7.96211802222041 0.331744789413556
 18    7.7547560970269  0.21095896322759
 19   7.57005747040502 0.110167810557301
 20   7.39765720578976 0.018518440817947
 21   7.23180338579779 -0.0692656870940248
 22   7.07089149201641 -0.155021296466044
 23   6.91510302410806 -0.23891277286938
 24    6.7634356244624 -0.321263271924989
 25   6.61480754367003 -0.402149138406729
 26   6.46870226839132 -0.481162504007701
 27   6.32449909878431 -0.557868303661679
 28   6.18149036734142 -0.631862986532283
 29   6.03895192108518 -0.702778283130209
 30   5.89619492997817 -0.770278201373415
 31   5.75259152297481 -0.834060080170645
 32   5.60760060285435 -0.893851683164155
 33   5.46078479882222 -0.949412582891954
 34   5.31182493219869 -1.00053857131971
 35   5.16052647952573 -1.04707115275664
 36   5.00681928389564 -1.08890959197611
 37   4.85074556708791 -1.12602402030887
 38   4.69243675481761 -1.15846571673951
 39    4.5320821872093 -1.18637109746806
 40   4.36990031804747 -1.20995679216694
 41   4.20611971685107 -1.22950685742938
 42   4.04096751624581 -1.24535571830796
 43   3.87466088872925 -1.25786984055231
 44   3.70740076993771 -1.26742994029382
 45   3.53936846218817 -1.27441510826541
 46   3.37072514761069 -1.27918991795273
 47   3.20161338401782 -1.28209510222085
 48   3.03215942770282 -1.28344183293325
 49   2.86247550551213 -1.28350920937608
 50   2.69266160528896 -1.28254431174141
 51   2.52280667935435 -1.28076408315952
 52   2.35298936655116 -1.27835832211042
 53   2.18327838856932 -1.27549315754015
 54   2.01373281205306 -1.27231451179923
 55   1.84440224517287 -1.26895120506784
 56   1.67532705855067 -1.26551750335741
 57   1.50653839508545 -1.26211503704322
 58   1.33805798534538 -1.25883412517527
 59   1.16989713056457 -1.25575459964693
 60   1.00205546059562 -1.25294628309835
 61  0.834518781282274  -1.2504692516569
 62  0.667258582172477 -1.24837403336905
 63  0.500232106407666  -1.2467017751752
 64    0.3333864766348 -1.24548441452712
 65  0.166662448852829 -1.24474477040441
 66  -6.34723643154402e-07 -1.24449656336338
 67  -0.166663590503342 -1.24474437228547
 68  -0.333387281971422 -1.24548361304923
 69  -0.500232486199639 -1.24670056308138
 70  -0.667258577169988 -1.24837240620983
 71  -0.834518525252537 -1.25046721225057
 72   -1.0020551147896  -1.2529438442422
 73    -1.169896841669 -1.25575178522609
 74    -1.338057863064 -1.25883097003121
 75  -1.50653851849834 -1.26211158642083
 76  -1.67532748573535 -1.26551381206773
 77  -1.84440302607835 -1.26894733668034
 78  -2.01373399522377 -1.27231053782322
 79  -2.18328002607519 -1.27548915669658
 80  -2.35299151603897 -1.27835437962237
 81  -2.52280940596931 -1.28076029001489
 82  -2.69266498288756 -1.28254076378784
 83  -2.86247961793432 -1.28350600611678
 84  -3.03216436929692 -1.28343907587911
 85  -3.20161925963688 -1.28209289270122
 86  -3.37073207147844 -1.27918835434706
 87   -3.5393765557697 -1.27441428271145
 88  -3.70741015773273 -1.26742993508344
 89  -3.87467169062433  -1.2578707246815
 90  -4.04097983266892 -1.24535754520041
 91   -4.2061336034573 -1.22950966561267
 92  -4.36991574714025 -1.20996061162313
 93  -4.53209900251543 -1.18637596399936
 94  -4.69245463243248 -1.15847169474411
 95  -4.85076400962319 -1.12603122834121
 96  -5.00683766689324 -1.08891822019383
 97  -5.16054416839968 -1.04708145489691
 98  -5.31184143594855 -1.00055082433683
 99  -5.46079992178895 -0.949427017279308
100  -5.60761447558721 -0.893868430563165
101  -5.75260455148022 -0.834079148131567
102  -5.89620752474636 -0.770299557183897
103  -6.03896435687376 -0.702801912299581
104  -6.18150246227536 -0.631889053872366
105   -6.3245104222171 -0.557897051736629
106  -6.46871192177848 -0.481194341637506
107  -6.61481469934467 -0.40218430690189
108  -6.76343923229919 -0.321301944961324
109  -6.91510192954826 -0.238954947151588
110  -7.07088436385898 -0.155066805918538
111  -7.23178816468399 -0.0693144856710327
112  -7.39763219090314 0.018466805063466
113  -7.57002168580167 0.110114278017245
114  -7.75470801394424  0.21090425146584
115  -7.96204824780777 0.331684887235183
116  -7.96213136655862  0.33173646239715
117  -8.34849023669933 0.601829464811584
118  -8.64662862680948 0.965549895693773
119  -8.77582553113349  1.41547016284572
120  -8.67972260480161   1.8748139746739
121  -8.37645159816044  2.23751220646591
122  -7.52588052000859  2.45931237799564
123  -6.66808115604009  2.27776665274365
124  -5.86896785077548  1.91378206556932
125  -5.10223179422479  1.47431196499849
126  -4.34440898418258  1.00073883174672
127  -3.57368365170513 0.522856799566744
128  -2.76487007979467 0.0787868850172759
129  -1.89804926005416 -0.286239851612402
130   -0.9689689635131 -0.528612779844663
131  -0.000829330143319956 0.00476191138911348
132  0.907874287722879 0.0870765545623238
133   1.78892509068833 0.322965430097636
134   2.62700865675255 0.682924419814655
135    3.4263320063245   1.1257519583325
136   4.20882989620775  1.60701845539991
137   5.00378644951707  2.08740427454323
138   5.84357325518595   2.5323788659925
139    6.8376223624405  2.87097535086532
140   7.91187934066816   2.9334648330899
141   8.87403373058528  2.44250884463472
142   9.26032533367416  1.87546913140826
143   9.39090566468333  1.22047529055566
144   9.20142548521213 0.622579887254132
145   8.82963716446685 0.131931620078872
146   9.01082339820717 -0.505909690321612
147   8.64166812037584 -0.678497045693266
148   8.50039957723929 -0.746401314119573
149   8.33660958642377 -0.830408493877618
150   8.16602822320115 -0.920812169995026
151   7.99624050144016 -1.01218726637618
152   7.82932088178234 -1.10327205670772
153   7.66466324654867 -1.19458546114138
154   7.50200223519135 -1.28581716479082
155   7.34087078253994 -1.37650600553921
156   7.18027246098398 -1.46646712066972
157   7.01936760224031 -1.55528982111319
158   6.85750452464162 -1.64237958844154
159   6.69418556266852 -1.72706433275731
160   6.52903314448368 -1.80867393774197
161   6.36177369932968 -1.88658388897841
162   6.19222164784231 -1.96024416709775
163   6.02027303644167 -2.02919356610881
164   5.84590061947426 -2.09306888231952
165   5.66915164790927 -2.15161020636283
166   5.49014304537824 -2.20466510950459
167   5.30905565544303 -2.25218924730221
168   5.12612661481161 -2.29424233977913
169   4.94163973733971 -2.33097920444424
170   4.75590946046873 -2.36263860859534
171   4.56925781653343 -2.38953110755567
172   4.38199165553654 -2.41202412908612
173     4.194386921402  -2.4305236994697
174   4.00668104931507 -2.44545488921709
175   3.81907147201752 -2.45724370471416
176   3.63171782080495 -2.46630230230779
177    3.4447460954098 -2.47301825214918
178    3.2582536306011 -2.47774779330109
179   3.07231403841902 -2.48081259481961
180   2.88698154046661 -2.48249933814246
181   2.70229435947333 -2.48306135451158
182   2.51827704823237 -2.48272156119741
183   2.33494184021897 -2.48167601210363
184   2.15228919375146 -2.48009750816267
185    1.9703078497636 -2.47813885475538
186   1.78897466815003 -2.47593551916411
187   1.60825476370504 -2.47360756431179
188   1.42810213120827 -2.47126089699731
189   1.24846152075782 -2.46898794025064
190   1.06927100549179 -2.46686802224009
191  0.890465910436863 -2.46496772139929
192  0.711981452575648 -2.46334150951044
193  0.533755075725521 -2.46203263106771
194  0.355724833139303 -2.46107412215376
195  0.177828138671438 -2.46048947555372
196  -7.75272029582377e-07 -2.46029287790158
197  -0.177829786709123 -2.46048907911817
198  -0.355726731611424  -2.4610733116029
199  -0.533757272561051 -2.46203138179083
200  -0.711983887012181 -2.46333980457402
201  -0.890468453681259 -2.46496556206879
202  -1.06927352642346 -2.46686543013622
203  -1.24846392509415 -2.46898495391367
204  -1.42810437923941 -2.47125756659919
205  -1.60825685875764 -2.47360394836703
206  -1.78897664246907 -2.47593168309633
207   -1.9703097486257 -2.47813487102739
208  -2.15229106762274 -2.48009345659297
209  -2.33494374066063 -2.48167198014772
210   -2.5182790283217 -2.48271764382656
211  -2.70229647536502 -2.48305765386387
212  -2.88698385376764 -2.48249596286172
213  -3.07231661748953 -2.48080965919903
214  -3.25825655027432 -2.47774541622046
215  -3.44474943356515 -2.47301655606186
216  -3.63172165113287 -2.46630141256167
217  -3.81907585205134 -2.45724374972782
218  -4.00668600485592 -2.44545600168444
219  -4.19439243007594 -2.43052601819091
220  -4.38199763624369 -2.41202779941913
221  -4.56926413282114 -2.38953627728457
222  -4.75591594654662  -2.3626454151548
223  -4.94164624617922 -2.33098775265002
224  -5.12613307930117 -2.29425267368599
225  -5.30906213495892 -2.25220132907332
226  -5.49014973127633 -2.20467882034882
227  -5.66915879748296 -2.15162538756553
228  -5.84590843705587 -2.09308541212118
229  -6.02028153104421   -2.029211458193
230  -6.19223058122875  -1.9602636255804
231  -6.36178259637223 -1.88660531917507
232  -6.52904150493841 -1.80869781457874
233  -6.69419295016286 -1.72709110462087
234  -6.85751082497388 -1.64240944167005
235  -7.01937279036104  -1.5553227541589
236   -7.1802767699754 -1.46650275993103
237  -7.34087418285706 -1.37654393677462
238  -7.50200468266849 -1.28585672595409
239  -7.66466454568871 -1.19462579850613
240  -7.82932072453967 -1.10331205016578
241  -7.99623896326902 -1.01222513458144
242   -8.1660249574135 -0.92084631087904
243  -8.33660384742696 -0.830437931534335
244  -8.50039180287864 -0.746425048179201
245   -8.6416681926598 -0.678510210488851
246  -9.01081123148404 -0.505907399619242
247  -8.82959098852526 0.131917374458456
248  -9.20135464210047  0.62255781473333
249  -9.39081817510507  1.22042350780575
250  -9.26024974719173   1.8754106222381
251  -8.87398284151537    2.442457096415
252  -7.91185867596313  2.93344461010521
253  -6.83761994967062  2.87102535343395
254  -5.84361880342337  2.53251483476506
255  -5.00387768543112  2.08763815549043
256  -4.20893072623444  1.60736509296624
257  -3.42643120853749  1.12624256729294
258  -2.62711397119943 0.683586230056545
259  -1.78909794419547  0.32375072071718
260  -0.908316456433997 0.0874196405042142
