// Id               X                Y
  1  -0.0820331986019429  2.46794135192532
  2  0.973294226057597   2.4650636316091
  3   2.04424997649224  2.44174897673678
  4   3.10041636860038  2.37723840442052
  5   4.14302928282621  2.20016483353053
  6   5.12059081333681  1.96338742740765
  7   6.08050271320056  1.80259972565696
  8   7.05473952149675   1.7234146921715
  9   8.00616220428003  1.64222230059272
 10   8.90458419763237   1.4007874625846
 11   9.61216130197531 0.802470526680726
 12   9.73327086874841 0.304418602099674
 13   9.57755897605591 -0.187861650009054
 14   9.16520662909121 -0.509830380713392
 15   8.64468036743686 -0.550046201635673
 16   8.16978763263766 -0.339371142015669
 17   7.79387257406768 -0.0675298070768314
 18   7.72964918975636 -0.0203603177428825
 19   7.67220710723533 0.0219259836483135
 20   7.60964429564865 0.0680962044003792
 21   7.53830000194941 0.120801138069102
 22   7.45796757945707 0.180186333158677
 23   7.36896919540307 0.245909345776269
 24   7.27168178547978 0.317531675072279
 25   7.16646587507432 0.394533277178587
 26   7.05365984186152 0.476317473644175
 27   6.93357007825628 0.562215203411966
 28    6.8064662116018 0.651495754350315
 29   6.67258317803972 0.743378552592157
 30   6.53213059473571 0.837045541588858
 31   6.38530747821994  0.93165412847383
 32   6.23231981580401  1.02635115205801
 33     6.073398436075  1.12028822500242
 34   5.90881486518955  1.21263852922199
 35   5.73889325423517  1.30261475656453
 36   5.56401699925036  1.38948747049429
 37   5.38462933610206  1.47260280275396
 38   5.20122793277175  1.55139818172706
 39   5.01435423026512  1.62541478803342
 40   4.82457887919867  1.69430567238978
 41   4.63248497298037  1.75783891095097
 42   4.43865083766623  1.81589571726244
 43   4.24363392766635  1.86846395664995
 44   4.04795698316959  1.91562791529671
 45    3.8520971416939  1.95755540677691
 46   3.65647826007438  1.99448335085753
 47   3.46146635513419  2.02670286898243
 48    3.2673678332283  2.05454476061149
 49   3.07443004489254  2.07836600525969
 50   2.88284365075558   2.0985377155665
 51    2.6927462946555  2.11543477158111
 52    2.5042271276152  2.12942720779374
 53   2.31733179444343   2.1408733054392
 54   2.13206757041966  2.15011426082836
 55   1.94840841009459  2.15747025057099
 56   1.76629973830918  2.16323769007215
 57   1.58566287222537   2.1676874761726
 58   1.40639901140574  2.17106401249341
 59   1.22839277093797  2.17358483213658
 60   1.05151526120116  2.17544065313352
 61  0.875626738451969   2.1767957246585
 62  0.700578864461004  2.17778834463134
 63  0.526216622421754  2.17853145072608
 64  0.352379941626422  2.17911320633527
 65  0.178905086108622   2.1795975204776
 66  0.00562586353757918   2.1800244560411
 67  -0.167625289149569   2.1804104943888
 68  -0.341016287029934   2.1807486366152
 69  -0.514714389162604  2.18100833311265
 70  -0.68888514491632  2.18113524411285
 71  -0.863691237983327  2.18105084506028
 72  -1.03929117092754  2.18065190259374
 73  -1.21583773279283  2.17980986007541
 74   -1.3934761925941  2.17837018646658
 75    -1.572342163088  2.17615175925436
 76   -1.7525590829402  2.17294637126374
 77   -1.9342352723618  2.16851847247478
 78  -2.11746052877774  2.16260528097437
 79  -2.30230224658931  2.15491742098038
 80  -2.48880107016497   2.1451402689063
 81  -2.67696612334975  2.13293620829144
 82   -2.8667699032594  2.11794800773562
 83  -3.05814298156507  2.09980353829969
 84  -3.25096872250028   2.0781220326237
 85   -3.4450783014967  2.05252205082532
 86  -3.64024638750219  2.02263125117075
 87  -3.83618792844781  1.98809796011319
 88  -4.03255654188821  1.94860439209846
 89  -4.22894504569854  1.90388118438768
 90   -4.4248886459961  1.85372269342724
 91  -4.61987120641003  1.79800226574966
 92  -4.81333482992503  1.73668648133689
 93  -5.00469267620628  1.66984721892479
 94  -5.19334452037614  1.59767036745017
 95  -5.37869407710599   1.5204601553372
 96  -5.56016665286675  1.43863840934623
 97  -5.73722536568536  1.35273855590213
 98  -5.90938409751677  1.26339475214381
 99  -6.07621558139205  1.17132705686357
100  -6.23735355579529  1.07732390344816
101  -6.39248864902684 0.982223245953459
102   -6.5413584570708 0.886893612824096
103  -6.68373303288667 0.792215978749011
104  -6.81939763973964 0.699066944955956
105  -6.94813510278468 0.608303297936614
106  -7.06971038803897 0.520747687056028
107  -7.18386003295152 0.437175034378553
108  -7.29028842794676 0.358299578302393
109  -7.38867106513689 0.284763560983159
110  -7.47866138054866 0.217130671929586
111  -7.55989825540398  0.15588621429588
112  -7.63206011604435 0.101408088380631
113  -7.69535863453021 0.0536101132783284
114  -7.75341693208843 0.00979083916888932
115  -7.81806803632784 -0.0389411202571607
116  -8.19081036981108 -0.317045261907226
117  -8.66207696026013 -0.536405935888408
118  -9.18323345489939 -0.507164546780062
119  -9.60276991254853 -0.194767901262664
120  -9.76963548443284 0.293822337449256
121  -9.65895290381492 0.794364741801505
122  -8.96103471998607  1.40452153507303
123  -8.06575675742553  1.65584107032366
124  -7.11604042654013  1.74187565122403
125  -6.14284250274023  1.81914219405753
126  -5.17907804989612  1.97279196089493
127  -4.19459400250781  2.20190803860003
128  -3.18735028105126  2.37129893128319
129  -2.22177148620569  2.44390668831056
130  -1.15260027220933  2.44107458486283
131  -0.0148581209032611  3.05228754200546
132   1.05779034361715  3.04668832902522
133    2.1287048051426   3.0228937906834
134     3.196895378081   2.9553429603008
135   4.25148719530143  2.77702327118027
136   5.29368229833121  2.53199578618333
137   6.34965388085254  2.35044627239358
138   7.41822218593586  2.22021805280662
139   8.49015699129711   2.0267479845843
140   9.49520798213328  1.57024632903812
141   10.1169928260786 0.650877315617492
142   10.1210103904294 -0.0672630910717522
143   9.76098820631421 -0.684854357354021
144   9.14802340663678 -1.04422734460523
145   8.47731549710768 -1.26204343804923
146   8.08758482793448 -1.89425307911507
147   7.93972682211428  -1.9896635859846
148   7.72030846878056  -2.0064946028862
149   7.50351962490883 -1.97281353382584
150   7.29549201591857 -1.91269130453772
151   7.09747651107545 -1.83677911542378
152   6.90908671157745 -1.75041610111359
153    6.7295429799117 -1.65698564711251
154   6.55790286104932 -1.55900500077307
155   6.39314957929794 -1.45845074824924
156   6.23426159487085 -1.35688654050611
157   6.08026226934578 -1.25554695560865
158   5.93024798254408 -1.15540758260022
159   5.78339973941986 -1.05724346666235
160    5.6389845901167 -0.961675086412789
161   5.49635174798742 -0.869202507428333
162   5.35492645641931 -0.780229593896116
163    5.2142032716092 -0.695080621306875
164   5.07373959754627 -0.614011563961993
165   4.93314988638224 -0.537217982919795
166    4.7921007177918 -0.46484096765738
167    4.6503068464438 -0.396972084468284
168   4.50752817277137 -0.33365783209889
169    4.3635674344011 -0.274903764916189
170    4.2182682739391 -0.220678255941736
171   4.07151327175375 -0.170915834143056
172    3.9232215754835 -0.125520096351694
173    3.7733459002841 -0.0843662947180334
174   3.62186886430111 -0.0473037742332391
175   3.46879879948188 -0.0141584504631122
176   3.31416529248863 0.0152645222963875
177   3.15801474851144  0.04117781430578
178   3.00040624333809 0.0638087136062049
179   2.84140786106551 0.0833957087264963
180   2.68109363236949 0.100184956912098
181   2.51954111085955  0.11442674613777
182   2.35682956371714 0.126372052671167
183   2.19303871121419 0.136269277933496
184   2.02824792668829 0.144361225379985
185    1.8625358005369 0.150882354925145
186    1.6959799745056  0.15605633204221
187   1.52865716201069 0.160093872492558
188   1.36064328324574 0.163190872000047
189   1.19201365804074 0.165526802710706
190   1.02284321333347 0.167263354269519
191  0.853206674769939 0.168543296004543
192  0.683178722932845 0.169489537280855
193  0.512834103869931 0.170204364936698
194   0.34224769101145 0.170768839347422
195  0.171494501378875 0.171242333723798
196  0.000649673382409324  0.17166220450464
197  -0.17021158333355  0.17204358401108
198  -0.341014053455004 0.172379289825459
199  -0.511682583314233 0.172639848626369
200  -0.682142136084921 0.172773635467742
201  -0.85231782166566 0.172707132761661
202  -1.02213488968232 0.172345316534115
203  -1.19151867669959 0.171572180870323
204  -1.36039450257686 0.170251414809593
205  -1.52868751611713 0.168227249183145
206   -1.6963224969429 0.165325493817933
207  -1.86322362907856 0.161354787847371
208  -2.02931427214782 0.156108087131565
209  -2.19451676838878 0.149364412401029
210  -2.35875233757391 0.140890878964074
211  -2.52194112672748  0.13044502283176
212  -2.68400249601276  0.11777742810619
213  -2.84485563431458 0.102634645855915
214   -3.0044206049695 0.0847623753994729
215  -3.16261991999187 0.0639088558124969
216  -3.31938072556833 0.0398283908759466
217  -3.47463764822046 0.012284908768493
218  -3.62833629708519 -0.018944555253857
219   -3.7804373442269 -0.0540665615524924
220  -3.93092101928073 -0.0932682354057726
221  -4.07979177334456 -0.136714529570186
222  -4.22708281487407 -0.184545728978287
223  -4.37286022601254 -0.23687506129086
224  -4.51722645223836 -0.293786211381795
225  -4.66032311973748 -0.355330521291344
226  -4.80233333884244 -0.421523705543935
227  -4.94348383572821 -0.492342009385054
228  -5.08404735279901 -0.567717831332584
229   -5.2243457360514 -0.64753484598015
230  -5.36475400111684 -0.73162253263395
231  -5.50570549384166 -0.819749715173376
232  -5.64769809074819 -0.911616274661001
233  -5.79130122795132 -1.00684167368052
234  -5.93716333807603 -1.10494841615187
235  -6.08601887139287 -1.20533816566199
236  -6.23869328858572 -1.30725811753266
237  -6.39610307597411 -1.40975560988077
238  -6.55924602905982 -1.51162010017911
239  -6.72917560813668 -1.61131296979433
240  -6.90695447616333  -1.7068824519438
241  -7.09358950076297  -1.7958327618072
242  -7.28995226831044 -1.87479220430316
243  -7.49656979035607 -1.93840955626556
244  -7.71242530936917 -1.97595765731959
245   -7.9318588152654 -1.96315543980248
246  -8.08129820244987 -1.87043683163107
247  -8.48261823076615 -1.24548793555843
248  -9.15769406624134 -1.04122062780343
249  -9.77796405263968 -0.694466536836136
250   -10.150272969909 -0.084065695953674
251  -10.1587736049797 0.634372684062348
252  -9.55365508164247  1.56542391617801
253  -8.55349356891653  2.03538869297102
254  -7.48090016993629  2.23762441068076
255  -6.40890009161126  2.36859099137172
256  -5.34733957070945   2.5427293982633
257   -4.2985887419224  2.78012695484953
258  -3.23762521530222  2.95691001951142
259  -2.16322208272858  3.02839348007319
260  -1.08961915706031    3.028017289853
