// Id               X                Y
  1  -0.34866586859408  8.54303998516251
  2  0.753256019140081  8.48479569252746
  3   1.81715937328726   8.2103542935795
  4   2.80000577995515  7.73684662683405
  5   3.66131603294299  7.10175058971938
  6   4.45496928146194  6.42970480377222
  7   5.25550459045641  5.78122321958108
  8   6.03458146131858  5.18389286918335
  9   6.77928895233464  4.58865914423867
 10   7.42849487893268   3.9255655351192
 11   7.87960084201906   3.1219790744235
 12    7.9363443168476  2.60731498476305
 13   7.78053746978796  2.10041007598703
 14   7.38298721841834  1.75055031717054
 15   6.87589607101987  1.71834834698932
 16   6.49143619675122  1.96433843662363
 17   6.35925747999007  2.10003678452025
 18   6.24526743897763  2.24368941588712
 19   6.14618734736351  2.38973724471024
 20   6.05974760576229  2.53345586373554
 21   5.98335428246884  2.67255874751928
 22   5.91300266934579  2.81013411721917
 23   5.84606349971121  2.94833774924031
 24   5.78102871485502   3.0886604830699
 25   5.71644188682875  3.23258959641893
 26   5.65100741595738  3.38199660899179
 27   5.58396811381287  3.53738455268497
 28   5.51533086943322  3.69753221059699
 29   5.44502168264247  3.86125390179982
 30   5.37282055457628  4.02769010770348
 31   5.29842414045263  4.19617650340744
 32   5.22148954522168  4.36615856369875
 33   5.14165926065272  4.53714619518787
 34   5.05857474697533  4.70868764474469
 35   4.97188710156339  4.88035455246288
 36   4.88126447718838  5.05173248007212
 37   4.78639833041379   5.2224151946156
 38   4.68700829538517  5.39200120733082
 39     4.582846045982  5.56009194390243
 40   4.47369814614443  5.72629103420883
 41   4.35938798094597  5.89020440435077
 42   4.23977684297871  6.05144092278419
 43   4.11476427204584   6.2096134136194
 44   3.98428775747228  6.36433989211123
 45   3.84832191714467   6.5152449118492
 46   3.70687726622019  6.66196094148306
 47   3.55999868001246   6.8041297139008
 48   3.40776364457772  6.94140350881589
 49   3.25028037277527  7.07344634805401
 50   3.08768585063455  7.19993509028371
 51   2.92014386097623  7.32056042645848
 52   2.74784302273949  7.43502777334261
 53   2.57099486641886  7.54305807845909
 54   2.38983196598122  7.64438853322331
 55   2.20460612827093  7.73877321517261
 56     2.015586651443  7.82598364827336
 57     1.823058640601  7.90580930961814
 58   1.62732139052725  7.97805805964187
 59    1.4286868158878  8.04255653359881
 60   1.22747794100178  8.09915045776978
 61   1.02402742569032  8.14770493975062
 62  0.818676141800163  8.18810468268656
 63  0.611771776345528  8.22025418531007
 64  0.403667475611346  8.24407786555283
 65  0.194720508538578  8.25952018076963
 66  -0.0147090408373352  8.26654567273504
 67  -0.224259568399452  8.26513901787602
 68  -0.433569230799639  8.25530500451853
 69  -0.642277221039278   8.2370685198421
 70  -0.850025046549532  8.21047446603963
 71  -1.05645780991342  8.17558768549716
 72  -1.26122550829684  8.13249281712023
 73  -1.46398434418388   8.0812941565693
 74  -1.66439806939993  8.02211544993683
 75  -1.86213935092131  7.95509968332639
 76  -2.05689118351332  7.88040880844956
 77  -2.24834833757391  7.79822345386383
 78  -2.43621886707134  7.70874257330808
 79   -2.6202256680863  7.61218306625736
 80  -2.80010810888601  7.50877933211538
 81  -2.97562372322909   7.3987827783312
 82  -3.14654997913925  7.28246125129363
 83  -3.31268611135223   7.1600983969311
 84  -3.47385501487889  7.03199292517713
 85  -3.62990517629827  6.89845777575684
 86  -3.78071261784077  6.75981916513373
 87  -3.92618280943189   6.6164155098902
 88  -4.06625249393137  6.46859621697764
 89  -4.20089135153372  6.31672034542866
 90  -4.33010341595138  6.16115515069812
 91  -4.45392813980384  6.00227454044954
 92  -4.57244099805786  5.84045748704097
 93   -4.6857535149312  5.67608646481146
 94  -4.79401260647773  5.50954600386719
 95  -4.89739914969216  5.34122147946232
 96  -4.99612571948462  5.17149828404231
 97  -5.09043348511289  5.00076156491953
 98  -5.18058830288752  4.82939674455898
 99  -5.26687612988581  4.65779111259029
100  -5.34959788466212  4.48633684059665
101  -5.42906396627164   4.3154359556629
102  -5.50558857289766  4.14550805526998
103  -5.57948335376101  3.97700180301161
104   -5.6510513622221   3.8104127020279
105  -5.72057545500687  3.64630724698919
106  -5.78831379288134  3.48535629722127
107  -5.85448819669183  3.32832105320339
108  -5.91943380835156  3.17576823580022
109  -5.98394250540834  3.02715880257308
110  -6.04948587296048   2.8807412636259
111  -6.11798952264728  2.73421656390759
112  -6.19211123537286  2.58504587276805
113  -6.27443331288554  2.43259541607887
114  -6.36731054764071  2.27890639013499
115  -6.47370569680387  2.12719412456062
116  -6.59741387851367  1.98205549767717
117  -6.96284414164929  1.70522134457353
118  -7.47023820396598  1.68985102728304
119  -7.89837028014242   1.9975999924895
120  -8.09805353650638  2.48503823951712
121  -8.08015288040349   2.9983770289267
122  -7.66921998241521  3.81889537588116
123  -7.04038386186578  4.48961758140042
124  -6.31076397566961  5.07623944095201
125  -5.55679592483174  5.64583119862042
126  -4.81735938818683   6.2391142335013
127   -4.1028333199735  6.85889148215423
128  -3.37931406127766  7.47172530510804
129  -2.46542037397364   8.0073179775105
130  -1.41583050716799  8.32693257566543
131  -0.0848032467048932   9.0551102013147
132   1.02412817050903   8.9972987296199
133   2.09259667483752  8.71755945090391
134   3.08239916697609      8.2357362647
135   3.98239610363625  7.60129997787125
136   4.83726008048575  6.90948235049097
137    5.6897769638368   6.2172693564031
138    6.5463626700893  5.52733052678456
139    7.3660392481368  4.78607293361708
140   8.04449460245803  3.90090854121339
141   8.34061173146748   2.8189353242586
142   8.17051270472213  2.11168674557398
143   7.70952146632539   1.5505413037876
144   7.05519237984936   1.2390041615855
145    6.3366102983992  1.17735139896505
146   5.58390568121911  1.31899089621316
147   5.41574964517808  1.39981160778829
148   5.25826462654175  1.49533242483376
149   5.11117706038673  1.60385935531293
150   4.97395247153726  1.72400322938082
151   4.84614298004705  1.85438687878892
152     4.727716861887  1.99304711199522
153   4.61821350175879   2.1382038772328
154   4.51687098283292   2.2883130241183
155   4.42280401579824  2.44195454748694
156   4.33508592586061  2.59779336882348
157   4.25264962116179  2.75484899541001
158   4.17432920126588  2.91256292405088
159   4.09905373009127  3.07047581323825
160   4.02586679993135  3.22815866107779
161   3.95391340314622  3.38521865928388
162   3.88243084359842  3.54129987737168
163   3.81074232371099  3.69607924496222
164   3.73825217539819  3.84926154366319
165   3.66444030494994  4.00057417054059
166   3.58885663352198  4.14976266202709
167   3.51111575639033  4.29658720016803
168   3.43089139290178  4.44081978072796
169   3.34791113959645  4.58224210226941
170   3.26195164415692  4.72064406739765
171   3.17283396412757  4.85582259812531
172   3.08041949887874  4.98758086984658
173   2.98460609307006  5.11572761938398
174   2.88532497974625  5.24007694895062
175   2.78253725376801  5.36044761578439
176   2.67623218318636  5.47666365062392
177   2.56642336104402  5.58855292520995
178   2.45314911498752  5.69594951470577
179    2.3364669149513  5.79868993596213
180   2.21645749442513  5.89661962570652
181   2.09321505660037  5.98958335952556
182   1.96685779437737  6.07744063808447
183   1.83751045062442  6.16004380707822
184    1.7053247525161  6.23727061642556
185   1.57045049993649  6.30897968343788
186   1.43306928159838  6.37507244181304
187   1.29335131447084  6.43541193664731
188   1.15150384470624  6.48992915804651
189   1.00771405858885  6.53848986011224
190   0.86220957912255  6.58105958105413
191  0.715192466888217    6.617506299268
192  0.566904297505446  6.64783278013268
193  0.417560919659116  6.67191113138979
194  0.267410740728358  6.68978059172853
195  0.116682428265211  6.70132231794511
196  -0.0343757203779601   6.7066075870608
197  -0.185524191029583  6.70553401357858
198  -0.336520563918371  6.69819772214781
199  -0.487118214631095  6.68452110275699
200  -0.637084538667003  6.66461691243887
201  -0.786171344100174  6.63843957980364
202  -0.934157967864149  6.60611122164693
203  -1.08080137799336  6.56762279325295
204  -1.22589390466924  6.52310098198163
205  -1.36920463448097  6.47257411920947
206  -1.51053995044457  6.41617161305841
207  -1.64968739315624  6.35395665363093
208  -1.78646933746938  6.28606184305715
209  -1.92069701766841  6.21258041318407
210  -2.05221197046958  6.13364983860036
211  -2.18085328152688  6.04938765651772
212  -2.30648591113122  5.95993800836696
213   -2.4289803407517  5.86543735218969
214  -2.54822998533979  5.76603775229356
215  -2.66414036244816  5.66189034175228
216  -2.77663901030555  5.55315574365714
217  -2.88567096085481  5.43999691552834
218  -2.99120440032611  5.32258332420771
219  -3.09322989502527  5.20108821762125
220   -3.1917642000537  5.07569019852662
221  -3.28685165344299  4.94657239072367
222  -3.37856760367724  4.81392313577948
223  -3.46702125450819  4.67793601190565
224  -3.55235945345526  4.53881038856562
225  -3.63477067793957   4.3967519913798
226  -3.71448965749095  4.25197384550721
227  -3.79180222873054  4.10469746616695
228  -3.86705079041856  3.95515467187951
229  -3.94064007272517  3.80359005730543
230    -4.013042773345   3.6502641704708
231   -4.0848056133399  3.49545793623063
232  -4.15655501880447  3.33947818093896
233  -4.22900154336096  3.18266402545465
234  -4.30294467487232  3.02539486141922
235  -4.37927577395275  2.86809868616973
236  -4.45897894910097   2.7112613198492
237  -4.54312933516878  2.55544586883715
238  -4.63285603209963  2.40136127761861
239   -4.7292248290061  2.25002623611281
240  -4.83315346823465  2.10279177136775
241  -4.94539318653284  1.96120685259699
242  -5.06648037903991  1.82695558217159
243  -5.19696210650408    1.701541177315
244   -5.3375114942908  1.58628731131827
245  -5.48872042816348  1.48266063546321
246  -5.65101872324981  1.39233495738144
247  -6.39111756510669  1.19906422150972
248  -7.11187599042078  1.20368993995171
249  -7.78959929568518  1.45899089988747
250  -8.29532873164923  1.98015730317318
251  -8.51721374527183  2.67366309955739
252  -8.28248810391332   3.7712443590976
253  -7.62985289528537    4.678412811989
254  -6.81574838265287  5.42996272916348
255  -5.95287013567841  6.11727967444492
256  -5.08258452053915  6.79500541217115
257  -4.19924912510677  7.46396776965456
258   -3.2657174293559   8.0723466302305
259  -2.25936507444515  8.56306459557305
260  -1.19130978465943  8.89487687917183
