// Id               X                Y
  1  -0.0753588773003615  1.09932986566397
  2  0.933803573581284  1.05893091685822
  3   1.97442549623324   1.0272848340612
  4   2.95065539010976  1.06083105603389
  5   3.90180485769445  1.12577201096051
  6   4.84093070671713  1.20016666546197
  7   5.77006564079076  1.23337936267637
  8   6.68161714128183  1.14521537552904
  9   7.52626886629938 0.832136914661508
 10   8.16959448152232 0.223072027235196
 11   8.43641095516436 -0.625098117674805
 12   8.34318840880557   -1.106772403756
 13   8.05406283889014 -1.53839327340818
 14   7.55585889891531 -1.79462680970178
 15   7.03657143567499 -1.71973877435052
 16   6.67550650016089 -1.36915976561782
 17   6.41821214433784 -1.03692357760793
 18   6.27214606919606 -0.881521529629009
 19   6.14056019590696 -0.762278043787405
 20   6.01378953623796 -0.66369243523753
 21   5.89021150472856 -0.580639808923884
 22   5.76847422854639 -0.509309293672316
 23   5.64710494373278 -0.446657946084192
 24   5.52509797103032 -0.390484752973152
 25   5.40211538284749 -0.339239489958651
 26   5.27831069074228 -0.291768668640702
 27   5.15403303626932 -0.247145759177978
 28   5.02960277629235 -0.204599182799733
 29   4.90521419973426 -0.163494944245372
 30   4.78093167925056 -0.123334284938201
 31   4.65672626776925 -0.0837480081597691
 32   4.53251697912594 -0.0444840675668159
 33   4.40820192126765 -0.00539063516736271
 34   4.28367711664043 0.033602468385675
 35   4.15884584364347 0.0725019016094726
 36   4.03362214306239 0.111267268353585
 37    3.9079313516793 0.149825312552793
 38   3.78170946990267  0.18808162877595
 39   3.65490230991845 0.225929931027216
 40    3.5274648073029 0.263259083782268
 41   3.39936056707472 0.299958188652792
 42   3.27056157224788 0.335920059966714
 43    3.1410479429034 0.371043419354719
 44   3.01080765244666 0.405234112961399
 45   2.87983614082087 0.438405612340463
 46   2.74813580727423  0.47047901634253
 47   2.61571539495318 0.501382723974572
 48   2.48258930080711 0.531051912182477
 49   2.34877685169621 0.559427915629646
 50   2.21430158922914 0.586457582661835
 51   2.07919059475351 0.612092654535916
 52   1.94347388148927 0.636289203207068
 53   1.80718386449332 0.659007143366103
 54    1.6703549148138 0.680209830196458
 55   1.53302299298924 0.699863738689069
 56   1.39522535563835 0.717938224174667
 57   1.25700032227035 0.734405349659879
 58     1.118387093455 0.749239774454007
 59  0.979425605901246 0.762418686912092
 60  0.840156417527847 0.773921776367777
 61  0.700620611269706 0.783731226932408
 62  0.560859712981648 0.791831731863164
 63  0.420915616872058 0.798210513424536
 64  0.280830515998711  0.80285735020651
 65  0.140646834277091 0.805764599204077
 66  0.000407160054164264 0.806927218167702
 67  -0.13984582102063  0.80634277705831
 68  -0.280069392759275 0.804011466226121
 69  -0.420220875335908 0.799936092192436
 70  -0.560257692773536 0.794122070121024
 71  -0.700137439964378 0.786577405136627
 72  -0.839817951353732 0.777312673556858
 73  -0.979257371200099 0.766340998518739
 74  -1.11841422879707  0.75367803237461
 75  -1.25724752101077 0.739341943807661
 76   -1.3957168085011  0.72335342463938
 77  -1.53378233018409 0.705735717457062
 78  -1.67140514700291 0.686514681233166
 79  -1.80854732192803  0.66571890008103
 80  -1.94517215069855 0.643379852291552
 81  -2.08124445241931 0.619532145510277
 82  -2.21673093333002   0.5942138330157
 83  -2.35160063082255 0.567466812157525
 84  -2.48582544350043 0.539337309914389
 85  -2.61938074224391 0.509876445478934
 86  -2.75224605298734 0.479140855435924
 87  -2.88440578549636 0.447193347802007
 88  -3.01584997764586 0.414103539645105
 89  -3.14657501288034  0.37994840596986
 90  -3.27658426895871 0.344812644459954
 91  -3.40588866226358 0.308788723877514
 92  -3.53450707169951 0.271976447043641
 93  -3.66246665483948 0.234481810655998
 94  -3.78980311161066 0.196414898332121
 95  -3.91656098505083 0.157886497325167
 96  -4.04279411048576 0.119003098002844
 97    -4.168566290148 0.0798599267429603
 98   -4.2939521355388 0.040531697071988
 99  -4.41903771770682 0.00106084850173355
100  -4.54392010946399 -0.0385567977687146
101  -4.66870403947533 -0.078388779653626
102  -4.79349278998167 -0.11858454055842
103   -4.9183695975964 -0.159394564285202
104   -5.0433664480782 -0.201187989637205
105   -5.1684219003216 -0.244465726012376
106  -5.29334208053852 -0.289866635693123
107  -5.41780033410408 -0.338169850594823
108  -5.54142986191679 -0.390311409672155
109  -5.66404673228211 -0.447455679899595
110  -5.78595139118948 -0.511167218891956
111  -5.90811652995168 -0.583672336453097
112  -6.03199440313024 -0.668061315243641
113  -6.15891686650795 -0.768215387301096
114  -6.29043643351824 -0.889324659086911
115  -6.43599755332509 -1.04698856324256
116  -6.69108752769408 -1.38332000730806
117  -7.04865955109921 -1.73783871470017
118  -7.56766460220624 -1.81894777175999
119  -8.07011651826646 -1.56752290211711
120  -8.36329409995292 -1.13813386756741
121  -8.45941513694921 -0.656818635413135
122  -8.19323578484548 0.191866316741098
123   -7.5463412591449 0.797823716764892
124   -6.6978275318497  1.10384941300668
125   -5.7829622548046  1.18336545606573
126  -4.84946828869884  1.14184133391505
127   -3.9026981499885  1.06073961174388
128  -2.94168752105506 0.992075934605074
129  -1.97773415531999 0.964466898225513
130  -1.02764332121349  1.00361864160202
131  0.187913775518827   1.6114230834803
132   1.11978332262266  1.62418508344682
133   2.04823620971743  1.64197224760756
134   2.98518035053082  1.68189417388973
135   3.93958442800898  1.74475622610977
136   4.97697086224796  1.80491023088026
137   6.04670182112245  1.78829413297551
138   7.11808431309924  1.58631869962919
139   8.09843705499905  1.07354423968753
140   8.77398914135947 0.181874418832015
141   8.84434751714665 -0.933296975327468
142   8.51395998671342  -1.5823938131813
143    7.9601947121691 -2.04555073235807
144   7.29164247688854 -2.29618393205547
145   6.58663650222087 -2.37762240987687
146   5.81070354023646 -2.34754264293661
147   5.69354995791239 -2.33054939603439
148   5.57618096975247 -2.31016665052174
149   5.45920881961347 -2.28666647870059
150   5.34276137401715 -2.26032102031497
151   5.22685039521996 -2.23140818643656
152   5.11146534173251  -2.2002189498264
153   4.99657818677107 -2.16705956180208
154   4.88213041298135 -2.13224147721972
155   4.76803868720179 -2.09606357224307
156    4.6542101485965 -2.05880748774125
157   4.54055663323931 -2.02073657267557
158   4.42700373304682 -1.98208968455908
159    4.3134920303478 -1.94307947678628
160   4.19997337925229 -1.90389626094222
161   4.08640916704974 -1.86470535817794
162    3.9727678058137 -1.82564930620878
163   3.85902236671168 -1.78685247196662
164   3.74514957854085 -1.74842374963002
165   3.63113000888098 -1.71045679105658
166   3.51694641535252 -1.67303601271072
167   3.40258413890098  -1.6362365512357
168   3.28803044864055 -1.60012716081618
169    3.1732748969778 -1.56476972732079
170   3.05830806423162 -1.53022373736736
171   2.94312270455502 -1.49654284550708
172   2.82771235499286   -1.463779691072
173   2.71207263731078 -1.43198154092456
174   2.59619947928715 -1.40119673748116
175   2.48009117891362 -1.37146725616414
176   2.36374621926683 -1.34283704843013
177   2.24716549253234 -1.31534342639965
178   2.13034984167432 -1.28902726338656
179   2.01330304303374 -1.26392025114837
180   1.89602842719066 -1.24006002614608
181    1.7785323546853 -1.21747390275301
182   1.66082075263462 -1.19619585976715
183   1.54290264591929 -1.17624780331881
184   1.42478620104292 -1.15766149816799
185   1.30648287586346 -1.14045347355291
186   1.18800311131886 -1.12465209337163
187   1.06936032002695 -1.11026955354584
188  0.950566892389965 -1.09733149532386
189  0.831637986991453 -1.08584463546798
190  0.712587616777458 -1.07583231603074
191   0.59343216552716 -1.06729701109041
192  0.474187081557674 -1.06025866205236
193   0.35486956993137 -1.05471559723715
194  0.235496127648855 -1.05068538811994
195  0.116084418380867 -1.04816194030314
196  -0.00334829866742225 -1.04715954699903
197  -0.122784318735819 -1.04766909545088
198  -0.242205948080123 -1.04970130271213
199  -0.361595789912827 -1.05324326569307
200  -0.480936070470858 -1.05830262058105
201  -0.600210021222972 -1.06486347805494
202  -0.719400207989447 -1.07292881708919
203  -0.83849079770298 -1.08248030008554
204  -0.95746503686807 -1.09351701212161
205  -1.07630841873989  -1.1060170662662
206   -1.1950053144146 -1.11997512448325
207  -1.31354270122692 -1.13536727670788
208  -1.43190659381168 -1.15218257755736
209  -1.55008584591855 -1.17039417508242
210  -1.66806829223334 -1.18998702769712
211  -1.78584497713783 -1.21093080926505
212  -1.90340612350492 -1.23320482718717
213    -2.020744906695 -1.25677673356414
214  -2.13785414193856 -1.28162040653501
215  -2.25472960719274 -1.30769950895795
216  -2.37136661778571 -1.33498369518767
217  -2.48776339712697 -1.36343339227157
218  -2.60391819050367 -1.39301229140865
219  -2.71983154471245 -1.42367781297767
220  -2.83550426872124 -1.45538905271779
221  -2.95093956222343 -1.48809866561085
222  -3.06614090829311 -1.52176050206861
223  -3.18111388909219 -1.55632302646144
224  -3.29586498418578 -1.59173338390066
225   -3.4104027847794 -1.62793320322669
226  -3.52473697914146 -1.66486162272379
227  -3.63887964689913 -1.70245076626031
228  -3.75284480368735 -1.74062658514032
229   -3.8666490954458 -1.77930588973702
230  -3.98031153994693 -1.81839603436621
231  -4.09385501442624 -1.85778944737253
232  -4.20730613289692 -1.89736322101325
233  -4.32069634706441 -1.93697611285263
234  -4.43406420200855 -1.97646424721645
235  -4.54745785473051 -2.01563892169711
236  -4.66093704490947 -2.05428875256533
237  -4.77457689976865 -2.09217619535101
238  -4.88846702687418 -2.12903932041157
239  -5.00270292591873 -2.16459756429726
240  -5.11737179349364 -2.19855283632925
241  -5.23253676189468 -2.23059415439225
242   -5.3482305885287 -2.26041477640369
243  -5.46446834382873 -2.28772268452256
244  -5.58124353021374 -2.31223899176756
245   -5.6984361212725 -2.33368945079998
246  -5.81545528155184 -2.35179577762186
247  -6.59124679584293 -2.39025975450868
248  -7.29822447720836 -2.31694650925839
249  -7.97053980565631 -2.07356006680012
250  -8.52952331340285 -1.61527384710782
251  -8.86488972719421 -0.967764887521585
252   -8.7974179042768 0.148598813458444
253  -8.11851429006901  1.03929034138519
254  -7.13315795170187  1.54611335502671
255  -6.05752768450362  1.73926490797058
256  -4.98287182400144  1.74698927168791
257  -3.93194959551773  1.67985451541693
258  -2.91118736417305  1.61237200919536
259  -1.91132659892539  1.58061669988483
260  -0.86356649135086  1.58767426790874
