// Id               X                Y
  1  -0.198752900166144  6.54916812022938
  2  0.873392964922336  6.47991380539725
  3   1.93510516015711  6.24641999045213
  4   2.96397251561427  5.87342088119889
  5   3.90415608192372  5.35824671619609
  6   4.68015443722856  4.75402618944346
  7   5.43182145531112  4.16172021905234
  8   6.19231139452868  3.58897978378428
  9   6.93993164097584   3.0103890229572
 10   7.61171873434386  2.36595433243247
 11   8.10350616018596  1.57971850562069
 12   8.19506763130793  1.06466847197161
 13   8.08039611990046 0.537123489861652
 14    7.6672246984633 0.111694579379038
 15   7.12646048934052 0.0609515039000258
 16   6.68710135741674 0.368821630238716
 17   6.53490927516275 0.564111706612209
 18   6.42678294770653 0.750079835345617
 19   6.34385660715183 0.928857826066537
 20   6.27662495410724  1.10210342826234
 21   6.22028889115671  1.26826892190341
 22   6.17208024620973  1.42424798656605
 23   6.13008620524439  1.56762994587865
 24   6.09262908646648  1.69847141420079
 25   6.05780137911346  1.82018362179183
 26   6.02340015041222  1.93854559425798
 27   5.98731320781276  2.05919642742671
 28   5.94785711831344  2.18581297674633
 29   5.90379529996278  2.31991573578033
 30    5.8541888786032  2.46153375771979
 31    5.7982693380164  2.60988624845729
 32   5.73538561492244  2.76381389837672
 33   5.66500119068028   2.9220101150239
 34    5.5867091651546  3.08314375856359
 35   5.50024562888706  3.24592972452285
 36   5.40549276883163  3.40917325685225
 37   5.30247012057478  3.57179807429439
 38   5.19131621005584  3.73286192141344
 39   5.07226450007961   3.8915612478695
 40   4.94561758619788  4.04722687523708
 41   4.81172281864307  4.19931289265091
 42   4.67095149668714  4.34738112148672
 43   4.52368248394353  4.49108358714054
 44    4.3702903760424  4.63014483182049
 45   4.21113780357774  4.76434539449836
 46    4.0465709995701  4.89350741258869
 47   3.87691799486867  5.01748258111262
 48   3.70248861383386  5.13614261377061
 49   3.52357559483967  5.24937207533284
 50   3.34045654440409  5.35706317539138
 51   3.15339615819507  5.45911234155816
 52   2.96264852313143  5.55541817853457
 53   2.76845949893325  5.64588042258046
 54   2.57106880507926  5.73039976639067
 55   2.37071187572214  5.80887824416508
 56   2.16762163187704   5.8812199298722
 57   1.96202985192186  5.94733193915031
 58   1.75416820513244  6.00712557282731
 59   1.54426924319147  6.06051743533794
 60   1.33256709063914  6.10743057382059
 61   1.11929768918923   6.1477956085496
 62  0.904698990283677  6.18155172205543
 63  0.689011126643041  6.20864752016388
 64  0.472476155993899  6.22904181965871
 65   0.25533751465851  6.24270428768145
 66  0.0378396770854355   6.2496158844945
 67  -0.179772166058187  6.24976916944177
 68  -0.397252904847978  6.24316846236017
 69  -0.614358419327317  6.22982978943969
 70  -0.830845940547122  6.20978065806309
 71  -1.04647429805822  6.18305970982271
 72  -1.26100477622176  6.14971613626105
 73  -1.47420183313359  6.10980885047232
 74  -1.68583274101568  6.06340563539515
 75  -1.89566726383936  6.01058217815852
 76  -2.10347831025851   5.9514206646933
 77   -2.3090416243827  5.88600831780513
 78  -2.51213387115608  5.81443630099981
 79  -2.71253216681064  5.73679811386211
 80  -2.91001427628872   5.6531874543795
 81  -3.10435552235748  5.56369725627371
 82  -3.29532618023726  5.46841882496295
 83  -3.48269187403034  5.36743962491059
 84  -3.66620868558807   5.2608439487404
 85  -3.84561635739863  5.14871601421114
 86  -4.02063570273911  5.03114225566656
 87    -4.190961497739  4.90821849343781
 88  -4.35625756412904  4.78005896178715
 89  -4.51616800754927  4.64679551471214
 90  -4.67032488215311  4.50857949156977
 91   -4.8183571973035  4.36558324331951
 92  -4.95989048701077  4.21801285543663
 93   -5.0945312318888  4.06614532996787
 94  -5.22185918753499  3.91037451712625
 95  -5.34144553989052  3.75124300327181
 96  -5.45288820984425  3.58945924804457
 97  -5.55586130820452   3.4258907901689
 98  -5.65015168444034  3.26156247884911
 99  -5.73568564997799  3.09765523186025
100  -5.81255176604283  2.93548854607377
101  -5.88101512282745    2.776480725673
102  -5.94152136454909  2.62207405515459
103  -5.99469424969081  2.47359808568677
104  -6.04133927973228  2.33202032175478
105  -6.08247870671863  2.19749789486678
106   -6.1194363683176  2.06868227380407
107  -6.15392116770827  1.94204559512272
108  -6.18794586868211  1.81208180061715
109  -6.22349767876338  1.67310004565738
110  -6.26227077731826    1.521597443231
111  -6.30585383147882  1.35720357197422
112  -6.35624653699943  1.18191365736307
113  -6.41645914344788  0.99846202122036
114  -6.49152148141559 0.808208559929688
115  -6.59083841199876  0.60946198506063
116  -6.73273336741915 0.399601566265844
117  -7.14861855594867 0.0581732244840961
118  -7.69097252533026 0.0622428349774464
119  -8.13476249689352  0.44133995741621
120   -8.2942604006954 0.953028721290836
121  -8.24156336335665  1.46967881950456
122  -7.79174478526993  2.27694952369361
123  -7.14454809038651  2.93664874961627
124  -6.41536231869953  3.52115959659529
125   -5.6710508500286  4.09354475113899
126  -4.93506336371312  4.68352562416962
127  -4.18486569279127   5.2821970512142
128  -3.29369697242737  5.79639838494616
129  -2.29423526543265  6.18564271458668
130  -1.25567044612583  6.41246955265447
131  -0.0905454607566487  7.11901407906259
132  0.999442489217305  7.04955237105054
133   2.06479223592415  6.81737318248792
134    3.0884091863129  6.44142144223258
135   4.05138763920562  5.92169866025612
136   4.95361894784682  5.29651509102775
137   5.82421564034316  4.63197760836108
138   6.68501239326034  3.95577684133966
139   7.51416680008746  3.23595306721191
140   8.22609059841908  2.38950480535366
141   8.60441313848366  1.34427649259141
142   8.51938226199736 0.630790317028828
143   8.15301059624319 0.0150959453941764
144   7.58523348976067 -0.40946261313777
145   6.93178287447671 -0.653645479872095
146   6.21903186612386 -0.802756747623471
147   5.82945139037238 -0.793943858841203
148   5.50417633918095 -0.738082733450133
149   5.22651061123137 -0.654015900922387
150   4.98593289894542 -0.55232919813969
151   4.77300141119364 -0.438259648602591
152   4.57964255782181 -0.313492636068685
153   4.40000361167646 -0.178057685344448
154   4.23098268744934 -0.0322099759750131
155   4.07223408425477 0.121954805455548
156   3.92504785221278 0.280187405328042
157   3.79053100503004 0.437516781691755
158   3.66858164498287 0.589950118620614
159   3.55801994050299 0.735131545336448
160   3.45715777221596 0.872102192338653
161   3.36424096896213  1.00081001155677
162   3.27765759893078  1.12171402545474
163   3.19599748186693  1.23553079719703
164   3.11804672097654  1.34308103183879
165   3.04276227811744  1.44519593339779
166   2.96924522579567   1.5426591675764
167   2.89671850329975  1.63617163388238
168   2.82450974520736  1.72633217652426
169   2.75203800412687  1.81363007160569
170   2.67880311208616  1.89844606223289
171   2.60437674620816  1.98105923798697
172    2.5283945658771  2.06165755455966
173   2.45054929768461  2.14034998012685
174   2.37058465992639  2.21717892016596
175   2.28829008509243  2.29213202091481
176   2.20349637501809  2.36515269411358
177   2.11607208601905   2.4361493175099
178   2.02592064909563  2.50500303570653
179   1.93297816003909  2.57157427386957
180   1.83721150694663  2.63570831226018
181    1.7386168966511  2.69723996341817
182   1.63721857829566  2.75599759695521
183   1.53306747969245  2.81180674534072
184   1.42623993455667  2.86449321928866
185   1.31683631602365  2.91388588621805
186   1.20497936025878   2.9598192178808
187   1.09081248707383  3.00213546244721
188  0.974498070826089  3.04068650568152
189  0.856215397449674  3.07533552621981
190  0.736158626609791  3.10595832818978
191  0.614534970484502  3.13244434950882
192  0.491562736905369  3.15469749128856
193  0.367469254414269  3.17263675656555
194  0.242489150876903  3.18619664690263
195  0.116862878169169  3.19532742771896
196  -0.00916501668034876   3.1999953439513
197  -0.135347661102966  3.20018273360073
198  -0.261437131912039  3.19588806232677
199  -0.387185611502653  3.18712597151231
200  -0.512347122905036  3.17392728662424
201  -0.636679379521519  3.15633891167248
202  -0.759944975414009   3.1344237374634
203  -0.881912679687859  3.10826053054376
204  -1.00235980388078  3.07794355378277
205  -1.12107442209646  3.04358190408639
206  -1.23785648452317  3.00529914189051
207  -1.35251963193267  2.96323229377636
208  -1.46489461686779  2.91753071229212
209  -1.57483038427832  2.86835383716724
210  -1.68219528642648   2.8158720196354
211  -1.78687873218854  2.76026044063991
212  -1.88879690048542   2.7017029101685
213  -1.98788497144979  2.64037908988362
214  -2.08411315535489  2.57648048103034
215  -2.17747054953892  2.51017071108196
216  -2.26800214569914  2.44163334290827
217   -2.3557571675664  2.37098461884052
218  -2.44087942207649  2.29837477267715
219  -2.52347470039334  2.22384325616359
220  -2.60376657963422  2.14750563230742
221  -2.68189284210041  2.06933630407777
222  -2.75814393528243  1.98939928178188
223  -2.83274551513946   1.9075672209684
224   -2.9061307655451  1.82371438448529
225  -2.97872878711243  1.73748954975238
226  -3.05114955090167  1.64847155765474
227  -3.12403540778207  1.55606399483673
228  -3.19816305655652  1.45957971462751
229  -3.27440571674249  1.35819874416497
230  -3.35378593591324  1.25101441576884
231  -3.43748319986249  1.13706935048096
232  -3.52685875947437  1.01544870907164
233  -3.62345114427854 0.885433338092147
234   -3.7289164903294 0.746758937407994
235  -3.84483500785416 0.600020634648509
236   -3.9723084376187 0.447183994938689
237  -4.11145313899314 0.291867676893595
238  -4.26132758988332 0.138733645672474
239  -4.42092399251865 -0.00817572357065682
240  -4.59081024466042 -0.146866969035422
241  -4.77414196960079 -0.277208459795661
242  -4.97672945092056 -0.399499695358982
243  -5.20668097499248 -0.512717995018951
244  -5.47386394387168 -0.61268859949561
245  -5.79004562918269 -0.690260591379007
246  -6.17429785361165 -0.728554816282591
247  -6.89717334322687 -0.638988890601148
248  -7.56992009061526 -0.453073676026637
249  -8.17268198198066 -0.0803718407640167
250  -8.58817978088021  0.50393242173885
251  -8.72378095295432  1.21092290586278
252  -8.40512894017684  2.27750703458785
253  -7.72237968712843  3.15178374668608
254  -6.90496703557982   3.8915150314304
255  -6.04569314615739  4.57808241688143
256  -5.16927613306877  5.24453909390865
257  -4.25537650669735   5.8640117220622
258  -3.28160490866631  6.38229982627619
259  -2.25132818284161  6.76810852175632
260  -1.18232576345944  7.01152042393664
