// Id               X                Y
  1  -0.204251759542339  2.56468980963135
  2  0.874192633367383  2.52983408160934
  3   1.94476410806199  2.36825630652796
  4   2.97813662987067  2.09504015422466
  5    4.0042973400588  1.81642739810719
  6   5.01833258704114  1.55144929084304
  7   5.98233261571866  1.29397354654091
  8   6.88473527500005 0.994608856689937
  9   7.70745241242414 0.565140838934484
 10   8.35187111872528 -0.0756238726059743
 11   8.64455354777415 -0.938562830866244
 12   8.53866468315602 -1.43535861954301
 13   8.21237840954069  -1.8512154905041
 14   7.64326414073299 -2.04653648043286
 15   7.12624628647515 -1.86617627634534
 16   6.77469586230793 -1.24889828554574
 17   6.49180456417231 -0.256324826846629
 18   6.42809060570763 -0.172270570530405
 19   6.37086453507403 -0.105305557396842
 20   6.31494345123325 -0.0457747427231275
 21   6.25807608185383 0.0100683866185446
 22   6.19712532741628 0.065758006997877
 23   6.12980249368358 0.123317470794314
 24   6.05477761840797 0.183649660092919
 25   5.97153200519263 0.246981519851816
 26   5.88023091693785 0.313136628693117
 27   5.78155053073802 0.381723012265863
 28   5.67644222812956 0.452269327028919
 29   5.56590634244936 0.524309971162497
 30   5.45083908441659  0.59741992306461
 31   5.33196555211298 0.671219571009295
 32   5.20983325528562 0.745368388133378
 33   5.08483592683373  0.81955826711693
 34   4.95724689747472 0.893509278127911
 35   4.82725161572599 0.966967275228875
 36   4.69497526335948   1.0397021420894
 37    4.5605045327656  1.11150592545624
 38    4.4239038911907  1.18219064251848
 39   4.28522708164231  1.25158587773009
 40   4.14452471941262  1.31953639302769
 41   4.00184884502205  1.38589994697674
 42   3.85725524587195  1.45054543735821
 43   3.71080426785319  1.51335140265008
 44   3.56256071095486  1.57420486342454
 45   3.41259325642796  1.63300045636854
 46   3.26097372914286  1.68963980399826
 47   3.10777637559825  1.74403106397288
 48   2.95307724522048  1.79608860758047
 49   2.79695370120273  1.84573278452647
 50   2.63948405245647  1.89288973931171
 51   2.48074728308598  1.93749125265098
 52   2.32082285296583   1.9794745891411
 53   2.15979054667791  2.01878233936043
 54   1.99773035418892  2.05536225046209
 55   1.83472237278749  2.08916704392946
 56   1.67084672475471  2.12015422246349
 57   1.50618348864188  2.14828587007254
 58   1.34081264397359  2.17352845053019
 59   1.17481402999761  2.19585260969287
 60   1.00826731913216  2.21523298696224
 61  0.841252005340814  2.23164804064629
 62  0.673847407045613  2.24507989128099
 63  0.506132683536493  2.25551418623624
 64  0.338186863245221  2.26293998821882
 65  0.170088881770384  2.26734968963643
 66  0.00191762717737196  2.26873895421262
 67  -0.166248010151922   2.2671066867358
 68  -0.334329085993318  2.26245503137245
 69  -0.50224655201108  2.25478939855388
 70  -0.669921209653834  2.24411852003577
 71  -0.837273671017191  2.23045453130849
 72  -1.00422432927751  2.21381308008048
 73  -1.17069334100294  2.19421345904921
 74  -1.33660062223777  2.17167876059924
 75  -1.50186585973105  2.14623605042185
 76  -1.66640853805835  2.11791655634999
 77  -1.83014798271831  2.08675586798718
 78   -1.9930034186802  2.05279414205727
 79   -2.1548940434924   2.0160763079354
 80   -2.3157391141914   1.9766522677096
 81  -2.47545804820274  1.93457708557657
 82  -2.63397054054989  1.88991116263386
 83  -2.79119670325594  1.84272039542079
 84  -2.94705723785884  1.79307632006388
 85  -3.10147365796691   1.7410562486791
 86  -3.25436858439306   1.6867434107087
 87  -3.40566613798989  1.63022711890563
 88  -3.55529245062758  1.57160298736906
 89   -3.7031762969168  1.51097323694556
 90   -3.8492498112723  1.44844713094299
 91  -3.99344919011438  1.38414159071415
 92  -4.13571518376066  1.31818204471821
 93  -4.27599305937906  1.25070356291299
 94  -4.41423157627719  1.18185231496029
 95  -4.55038037658004  1.11178735794588
 96  -4.68438507909836  1.04068270124103
 97   -4.8161792868486  0.96872951729621
 98  -4.94567268438317 0.896138294162465
 99  -5.07273442068879  0.82314071566007
100  -5.19717111563631 0.749991190573473
101  -5.31869932408719 0.676968304987023
102  -5.43691369110873 0.604377002285099
103  -5.55125536516212 0.532552663243589
104  -5.66099179677653 0.461867428327518
105  -5.76522903779844 0.392735492186937
106  -5.86298568309648 0.325606445318384
107  -5.95334921571806 0.260928085764806
108   -6.0356981504485  0.19906416692507
109  -6.10991826374448 0.140158201828747
110  -6.17657425028764 0.0839707500360714
111  -6.23700152439717 0.0295795579877464
112  -6.29350927142339 -0.0249853170795636
113  -6.34919199941838 -0.0832012947579919
114  -6.40631241065284 -0.148678945508346
115   -6.4702504876895 -0.231066637506035
116  -6.76836105643985 -1.21692213655896
117  -7.13240685444366 -1.82660055129339
118   -7.6535993952491  -1.9946400581944
119  -8.21861589517222 -1.78410466575656
120  -8.53390819416155 -1.36009705496595
121  -8.62792911281132 -0.861689126551208
122  -8.31795661276926 -0.00599923436195634
123  -7.66382753329662  0.62151148855019
124   -6.8406184273139  1.03431739807069
125   -5.9501300108072  1.31328705506776
126  -5.03710486890435  1.53987536696982
127  -4.12169734005062   1.7676053192862
128  -3.21465244577572  2.01888814387857
129  -2.30433303559992  2.27643535824535
130   -1.2518864993941  2.44195722981413
131  0.0917937371084084  3.06879729085978
132   1.17733975356113   3.0280047916368
133   2.24083390444574  2.87019503989238
134   3.27602184590118  2.62861157204449
135   4.30318332951391  2.35601238043551
136   5.33747271683471  2.07879225484189
137   6.37252934203705  1.77132234215929
138   7.38229128613572  1.36177150113529
139   8.29856892618295 0.750019161651458
140   8.95602800482987 -0.148620622646155
141   9.06380266873223 -1.25674399545468
142   8.75114485495355 -1.90686612036742
143   8.19559494019987 -2.35875385409295
144    7.5202995006539 -2.56238062396752
145   6.82152487724214 -2.56325080152282
146   6.10951079933025 -2.42920001633351
147   6.03384753370766 -2.40328245461432
148   5.89478086886472 -2.34903535660317
149   5.75757231322941 -2.28754403690435
150   5.62305902120825 -2.22008186953021
151   5.49139597802558 -2.14782367586426
152   5.36285459392149 -2.07214672430848
153   5.23745175623694 -1.99433998890916
154   5.11497397834693 -1.91549423817537
155   4.99506485552693 -1.83647028051494
156   4.87728818208736 -1.75789668321976
157   4.76117488597764 -1.68019288334575
158   4.64626449990189 -1.60361391495606
159   4.53213925537762  -1.5283034142458
160   4.41844483606799 -1.45434035382028
161   4.30489642804861 -1.38177215907308
162   4.19127388974713 -1.31063444259824
163   4.07741144496395 -1.24096108818574
164   3.96318611244181 -1.17278855064117
165   3.84850719919607 -1.10615709781453
166   3.73330774293567 -1.04111058420377
167   3.61753798966232 -0.977695596130548
168   3.50116065496621 -0.915960400311168
169    3.3841476276955 -0.855953915995426
170   3.26647778333763 -0.797724821042601
171   3.14813561267352 -0.741320839856971
172   3.02911041822312 -0.686788217093495
173   2.90939587667116 -0.634171357054589
174   2.78898981103155 -0.583512598041362
175   2.66789406143164 -0.534852086659658
176   2.54611438200554 -0.488227722256616
177    2.4236603232099 -0.443675148289119
178   2.30054508264415 -0.401227772756218
179   2.17678532199021 -0.360916806546936
180   2.05240095602659 -0.322771312401992
181   1.92741492310515 -0.286818259446195
182   1.80185294637066 -0.25308258080029
183   1.67574329367474 -0.221587232475612
184   1.54911654209069 -0.192353252252203
185   1.42200535079291 -0.165399817984756
186   1.29444424445737 -0.140744304648886
187   1.16646940805829 -0.118402339549335
188   1.03811849305106 -0.0983878552777543
189   0.90943043444006 -0.0807131397973437
190  0.780445277907738 -0.0653888830684363
191  0.651204016016304 -0.0524242196369882
192  0.521748432422791 -0.041826766504658
193  0.392120952990766 -0.0336026556696168
194  0.262364502648901 -0.0277565607642158
195  0.132522366816032 -0.0242917172563661
196  0.00263805617795454 -0.023209935816196
197  -0.127244826423688 -0.0245116085567325
198  -0.257082718248012 -0.0281957079956835
199  -0.386832229318953 -0.0342597787483407
200  -0.516450276748091 -0.0426999220969235
201  -0.645894221941944 -0.0535107737429998
202  -0.775122011881526 -0.0666854751745849
203  -0.904092325617611 -0.0822156391805358
204  -1.03276472707283 -0.100091310161195
205  -1.16109982519467 -0.120300919901221
206    -1.289059442451 -0.142831239499391
207  -1.41660679258398 -0.167667328184824
208  -1.54370666844357 -0.194792479622154
209  -1.67032564052188 -0.224188166313151
210  -1.79643226645233 -0.255833982685421
211  -1.92199731119608 -0.289707587246417
212  -2.04699397669294 -0.325784644359046
213  -2.17139813844274 -0.36403876624128
214  -2.29518858484411 -0.404441455732252
215  -2.41834725300656 -0.446962051165309
216  -2.54085945287491 -0.491567675167076
217  -2.66271407041678 -0.53822319015079
218  -2.78390374098616 -0.586891165949157
219  -2.90442498811943 -0.637531867348481
220  -3.02427833208003 -0.690103273508384
221  -3.14346838790609 -0.74456114776005
222  -3.26200399721066 -0.800859181101102
223  -3.37989846987854 -0.858949238719207
224   -3.4971700501737 -0.918781741915939
225  -3.61384276579779 -0.980306211013328
226   -3.7299478621679 -1.04347198143479
227  -3.84552606835464 -1.10822907689736
228  -3.96063098561747 -1.17452917600684
229  -4.07533392301645  -1.2423265414855
230  -4.18973050340046   -1.311578662412
231  -4.30394925060491 -1.38224613578036
232     -4.41816199233 -1.45429088953114
233  -4.53259506703077 -1.52767109385154
234  -4.64753886094566 -1.60233002177388
235  -4.76335140710206 -1.67817515732821
236  -4.88045087515088 -1.75504432912427
237  -4.99929374428459 -1.83265947822824
238  -5.12034064764498 -1.91057606632791
239  -5.24401570653635 -1.98814221237212
240  -5.37066015212805 -2.06447936706104
241  -5.50046917962651 -2.13848725204772
242  -5.63340592987836 -2.20887805301673
243  -5.76918092356932 -2.27428652006186
244  -5.90762167941713 -2.33354880899107
245  -6.04784234316392 -2.38540367376377
246  -6.12741475584389 -2.41098462341957
247  -6.84254190783343 -2.52984290209696
248  -7.54160681865381 -2.51244840778101
249  -8.21216844381822 -2.29189221714042
250   -8.7566966235284 -1.82585919731363
251  -9.05384428754948 -1.16767374925864
252  -8.92209433448296 -0.061314289174034
253  -8.24774561782864 0.826001147166936
254  -7.31971377627118  1.42423704043091
255   -6.3001145962392  1.82085946351738
256  -5.25474977510336  2.11619736037126
257  -4.20383698474313  2.37752534455135
258  -3.14691973575599  2.62619676155113
259  -2.07779288572486  2.84123067796976
260  -0.997195425304855   2.9958805398866
