// Id               X                Y
  1  -0.0918365913407035  1.79055932495647
  2    0.9184609452337  1.75442444635725
  3   1.97539153387539  1.63946876912923
  4    3.0181814279377  1.58615054519858
  5    4.0042579179413  1.57047909089611
  6   4.96252600278877  1.56607967030319
  7   5.90461550005731  1.53454380515855
  8   6.82400441756424  1.41371179507808
  9   7.68606873270591  1.11847913022221
 10   8.39692435790798 0.576825345105561
 11   8.83192512756068 -0.205654167599196
 12   8.86517473963721 -0.700801037293531
 13   8.70333980496449 -1.19808601221481
 14   8.29258296062176 -1.57864996884368
 15   7.77250211173248 -1.63424493138931
 16   7.35143236358228 -1.37955521016948
 17   7.08839762773689 -1.10593768519575
 18    6.8882861224934 -0.860204466107968
 19   6.72227568966268 -0.65567466197904
 20   6.57703566629522 -0.488189894070196
 21   6.44518366070104 -0.349210056333304
 22   6.32197101858262 -0.231118452995813
 23   6.20409338195294 -0.128266565113115
 24   6.08916924265812 -0.0366996065778682
 25   5.97545750595061 0.0463112706708265
 26   5.86168416948532 0.122652393055155
 27   5.74692846785718  0.19363974136735
 28   5.63054393709197 0.260205088242553
 29   5.51210035461029 0.323022736403837
 30   5.39133820238369 0.382596051555251
 31   5.26813087590091  0.43931635047378
 32   5.14245219644645 0.493502277533213
 33   5.01434823779601 0.545425143982139
 34   4.88391326890044 0.595324160436812
 35   4.75126990018993 0.643414565494222
 36   4.61655347288128 0.689891019590797
 37   4.47990052928458 0.734928117069443
 38   4.34144096898174 0.778679411003432
 39   4.20129331537761 0.821275936411451
 40   4.05956243781862 0.862824866972344
 41   3.91633907854367 0.903408664995551
 42   3.77170060117272 0.943084884111982
 43    3.6257124871395  0.98188664853264
 44   3.47843021918386  1.01982375232487
 45   3.32990129528543  1.05688428010823
 46    3.1801672094562  1.09303663252603
 47   3.02926529880119  1.12823183991176
 48   2.87723040527875  1.16240605508875
 49   2.72409633324894  1.19548312826712
 50   2.56989710035961  1.22737718210589
 51   2.41466798893027   1.2579951198079
 52   2.25844641350978  1.28723901304103
 53   2.10127261409967  1.31500833143506
 54    1.9431901915972  1.34120198660814
 55    1.7842464954402  1.36572017541519
 56   1.62449287541645  1.38846601634138
 57   1.46398480670679  1.40934698048075
 58   1.30278190109027  1.42827612461664
 59   1.14094780932688  1.44517313869204
 60  0.978550031104507  1.45996522234665
 61   0.81565963716756  1.47258780739792
 62  0.652350918454304  1.48298514361176
 63  0.488700970776256  1.49111076415411
 64  0.324789227071975  1.49692784687979
 65  0.160696946293782  1.50040948436171
 66  -0.00349332790030177   1.5015388744768
 67  -0.167698331942623  1.50030943897398
 68  -0.331834657616874  1.49672487573658
 69  -0.495819328790333   1.4907991453997
 70  -0.659570371379384  1.48255639112645
 71  -0.823007362433133  1.47203078531079
 72  -0.986051952581097  1.45926629517147
 73  -1.14862834705903  1.44431635487414
 74  -1.31066373705221  1.42724343058016
 75  -1.47208866784998  1.40811846165308
 76   -1.6328373353562  1.38702016091183
 77  -1.79284779497885  1.36403415595248
 78  -1.95206207805464  1.33925195399316
 79  -2.11042619804766  1.31276971511755
 80  -2.26789004156101  1.28468682115317
 81  -2.42440712974101  1.25510423263113
 82  -2.57993424100514   1.2241226324559
 83  -2.73443088232106  1.19184036293698
 84  -2.88785859878143   1.1583511724877
 85  -3.04018010489228  1.12374180054382
 86  -3.19135822840096  1.08808944101561
 87  -3.34135465143577  1.05145914017811
 88  -3.49012844354053  1.01390119917312
 89   -3.6376343908133 0.975448666625332
 90  -3.78382114338945   0.9361150219846
 91  -3.92862923737484 0.895892161961334
 92  -4.07198909733026  0.85474880925369
 93   -4.2138191902392 0.812629461189385
 94   -4.3540245955837 0.769453975500083
 95  -4.49249636001548 0.725117845115104
 96  -4.62911211659432 0.679493129033413
 97  -4.76373855330929 0.632429866199244
 98  -4.89623637578154 0.583757594879117
 99  -5.02646840353873 0.533286322411592
100  -5.15431134791792  0.48080594163285
101  -5.27967163003141 0.426082688412835
102  -5.40250536016893 0.368850789281558
103  -5.52284240269284 0.308796950009805
104  -5.64081441819666 0.245534721506619
105  -5.75668708471384 0.178564869857173
106  -5.87089751666205 0.107216350473012
107  -5.98409937814758 0.0305598506880025
108  -6.09722053792612 -0.0527185064481167
109  -6.21154169862526 -0.144502188971563
110  -6.32881014913649 -0.247513971334625
111  -6.45141337166828 -0.365693939346069
112  -6.58266256890043 -0.504655305406403
113  -6.72731674854038 -0.671933560754149
114  -6.89277511638114 -0.875899048131588
115  -7.09237202382669  -1.1204291086355
116  -7.35475954963372 -1.39193901314949
117  -7.77660756229881  -1.6447142324755
118  -8.29642388488686 -1.58537350879216
119  -8.70380210280983 -1.19880883766142
120  -8.85831850807198 -0.698451901939184
121  -8.81715619770417 -0.203538255476191
122   -8.3702853780826 0.572702981828361
123  -7.65284594338857  1.10634677622854
124  -6.78801862223603  1.39478892561618
125  -5.86797916300776   1.5109163053679
126  -4.92696229102999  1.53944130971087
127  -3.97402974412394  1.54229052236091
128  -3.01966320385266  1.55876729437911
129  -2.07668962159996  1.61214016441981
130  -1.07470871339382   1.6835842012217
131  0.239988151810491  2.26455639703937
132   1.21924012066692  2.25606047023237
133   2.15726693557563  2.22822622520019
134   3.10183583438296  2.20168207882258
135   4.06659076821664  2.18747964084982
136   5.10241367176295   2.1695454297789
137   6.16242247893448  2.09786809794545
138   7.22338635921533  1.88821363873714
139   8.22226677496772  1.43300920335271
140   9.00507389952558 0.642615002783478
141   9.30268446495193 -0.429848635568748
142   9.14023338626605 -1.13438833813536
143   8.72361747925898 -1.71835158840624
144    8.1385796642436 -2.12015042710335
145   7.47129158575278 -2.34730110751071
146   6.72014173065586 -2.44557674339009
147   6.57785520337605 -2.44730589964599
148   6.43496807096801 -2.44390891013063
149   6.29195468673901 -2.43557729262222
150   6.14915325392648 -2.42255985620212
151   6.00681399500544 -2.40514506522506
152   5.86513459531102 -2.38365133270521
153   5.72426901608631 -2.35841849360749
154   5.58432860267536 -2.32979911370429
155   5.44538355451025  -2.2981502196695
156   5.30746606603733  -2.2638259959235
157    5.1705746793961 -2.22717188533701
158   5.03467929906314 -2.18852007088365
159   4.89972647026714 -2.14818622620401
160   4.76564460051406 -2.10646754292557
161   4.63234894660668 -2.06364176917848
162   4.49974622121366 -2.01996705102678
163   4.36773868697208  -1.9756824300783
164   4.23622765575962 -1.93100880262219
165   4.10511639540699 -1.88615003324018
166   3.97431236186319 -1.84129431655784
167   3.84372888450742 -1.79661540094717
168   3.71328625160214  -1.7522739372779
169   3.58291243674063 -1.70841844491922
170   3.45254329874931 -1.66518662483756
171   3.32212272100919 -1.62270588877019
172   3.19160223346716 -1.58109471554002
173    3.0609408992764 -1.54046265903846
174   2.93010456403908 -1.50091198493223
175   2.79906577704265 -1.46253691352269
176   2.66780274283137 -1.42542592782792
177    2.5362994852141 -1.38965989415313
178   2.40454449647817 -1.35531551722807
179   2.27253130335636 -1.32246181585065
180    2.1402567395023  -1.2911654080238
181   2.00772205151184 -1.26148458009325
182   1.87493070235439 -1.23347728128741
183   1.74189010737457 -1.20719186034509
184   1.60860891025276 -1.18267878709909
185   1.47509937240627 -1.15997700708153
186    1.3413741316353 -1.13913048449466
187   1.20744916982503 -1.12016912865326
188   1.07334017759596  -1.1031311388896
189  0.939065893130442 -1.08803768318389
190  0.804644331137863 -1.07492167856135
191  0.670096152669871 -1.06379586511324
192  0.535441133959863 -1.05468807303202
193  0.400701133998021 -1.04760301579195
194  0.265897236929753 -1.04256333462239
195   0.13105186887714 -1.03956623697023
196  -0.00381298404446564 -1.03862879906187
197  -0.138674874670671 -1.03974133682194
198  -0.273511330535429 -1.04291478619924
199  -0.408300357004623 -1.04813320330381
200  -0.543019464358529 -1.05540070569891
201  -0.677647535860159 -1.06469564234825
202  -0.81216261380338 -1.07601463528384
203   -0.9465448785699 -1.08933068958243
204  -1.08077354727995  -1.1046323427375
205  -1.21483056685772 -1.12188735542106
206  -1.34869707600145 -1.14107570436118
207  -1.48235736949747 -1.16215971154962
208  -1.61579537102708 -1.18511041587881
209  -1.74899847625773 -1.20988420837992
210  -1.88195439440391 -1.23644284790636
211  -2.01465459291092 -1.26473604172646
212  -2.14709173393911 -1.29471586457243
213   -2.2792625786437 -1.32632434998202
214  -2.41116610731935 -1.35950333711383
215  -2.54280586409253 -1.39418597261783
216  -2.67418873993192 -1.43030305905152
217  -2.80532681368175 -1.46777742090221
218    -2.936236707969 -1.50652770449789
219  -3.06694101790551 -1.54646470298458
220  -3.19746809572415 -1.58749340230821
221  -3.32785314795403 -1.62951053760863
222  -3.45813827764591 -1.67240544864212
223   -3.5883732590464 -1.71605835974083
224  -3.71861562190083 -1.76034041758669
225  -3.84893102908193 -1.80511228748595
226  -3.97939310661963 -1.85022363571186
227  -4.11008322441434 -1.89551178019957
228  -4.24108973034172 -1.94080072188859
229  -4.37250683001743 -1.98589976621869
230  -4.50443285674402 -2.03060228682969
231  -4.63696799539309 -2.07468434907038
232  -4.77021133090138 -2.11790358989422
233  -4.90425730746035 -2.15999825916922
234   -5.0391915943535  -2.2006867388601
235   -5.1750864445811 -2.23966772525991
236   -5.3119956761816 -2.27662122850545
237  -5.44994942271478 -2.31121059642979
238  -5.58894883335107 -2.34308582135626
239  -5.72896104557706  -2.3718881249633
240  -5.86991483348609 -2.39725593004757
241  -6.01169748542315   -2.418832232123
242  -6.15415336307676 -2.43627293162703
243  -6.29708281496317 -2.44925557334284
244   -6.4402334422189 -2.45748791916025
245  -6.58326541590066 -2.46071775242755
246    -6.725705826832 -2.45875052706141
247  -7.47688460195099 -2.35808162163856
248  -8.14369279305302 -2.12672549358754
249  -8.72598239962562 -1.71939561784058
250  -9.13653486215463 -1.13023722659567
251  -9.29009181139789 -0.422952295233981
252  -8.97762210256461  0.64632701675291
253  -8.18474276137926  1.42805985475594
254  -7.18050032214691  1.87489950523477
255  -6.11577458017323  2.07859060003641
256  -5.05022413794978  2.14641520244617
257  -3.99901803882001  2.16151156383775
258  -2.95477067761052  2.17390470265976
259  -1.89853779377844  2.20184688210247
260  -0.829358415354229  2.23937527560277
