// Id               X                Y
  1  -0.341451427851402  5.05358545676919
  2  0.714901730967326  5.03130430686346
  3   1.76469410187836  4.86064973178999
  4   2.76972927656683  4.52205464194492
  5   3.70416336194871  4.05360582127656
  6    4.5649822401423   3.4214484952624
  7   5.36385702131229  2.73079572195596
  8   6.14465779752439  2.03218678557278
  9   6.86193657892439  1.32222458141591
 10    7.4184720530786 0.552605444850371
 11   7.65678182000127 -0.376135288374923
 12   7.48159630260742 -0.878108611193429
 13   7.05799285772056 -1.21939285642696
 14   6.49343426032615 -1.21313742226036
 15   6.08063313590424 -0.83793454313891
 16   5.97386948353087 -0.214513243568933
 17   5.99388242900532 0.396658741246858
 18   5.98090170675317  0.53027805957335
 19   5.96511159133061 0.640580927976082
 20   5.94634143749397 0.742653230130001
 21   5.92457474954137 0.840349159539659
 22   5.89924912863757 0.937841577808434
 23   5.86951705514272  1.03794674838771
 24   5.83475157193137  1.14205382460139
 25   5.79442632806547  1.25057427620474
 26   5.74821986140115  1.36340023815643
 27   5.69591690079737   1.4801431370068
 28   5.63740785380577  1.60029197142113
 29   5.57264950710472  1.72328689887375
 30   5.50164836921397  1.84856157154503
 31   5.42444371065643   1.9755617729496
 32   5.34109727605312  2.10375355346202
 33   5.25168648711927  2.23262535196896
 34   5.15630082228212  2.36168763969481
 35   5.05504030759879  2.49047174330676
 36   4.94801539754342  2.61852876288541
 37   4.83534761885073  2.74542896114872
 38   4.71717050977054  2.87076172527095
 39   4.59363051146295  2.99413604728321
 40   4.46488757929914  3.11518139521498
 41   4.33111537368276  3.23354881784811
 42   4.19250096572346   3.3489121239966
 43   4.04924405318347  3.46096899139468
 44   3.90155572756604  3.56944188409907
 45   3.74965686493214  3.67407868626479
 46   3.59377623229364  3.77465299084368
 47   3.43414840990593    3.870964011498
 48    3.2710116294693  3.96283611279801
 49   3.10460562129871  4.05011797623549
 50   2.93516955203539  4.13268143704211
 51   2.76294012033781  4.21042003912919
 52   2.58814986277351  4.28324736298032
 53   2.41102570705519  4.35109518464177
 54   2.23178779569909  4.41391152383292
 55   2.05064859069987  4.47165863645371
 56   1.86781225922977  4.52431100217486
 57   1.68347433179253  4.57185335205644
 58   1.49782161765684  4.61427877483891
 59   1.31103235760903  4.65158693415879
 60    1.1232765908819  4.68378242281422
 61  0.934716711272693  4.71087327459428
 62   0.74550818668128  4.73286964924369
 63  0.555800416305249  4.74978270193873
 64   0.36573770026577  4.76162364520925
 65   0.17546029727855  4.76840300851451
 66  -0.0148944530656818  4.77013009858653
 67  -0.205190965943278  4.76681266208349
 68  -0.395294226654958  4.75845675091868
 69  -0.585068606993639  4.74506678970677
 70  -0.774376703703054  4.72664584395014
 71  -0.963078220176355  4.70319608672506
 72  -1.15102891286138  4.67471946057527
 73  -1.33807962433244  4.64121852993994
 74  -1.52407542554732  4.60269751761226
 75  -1.70885489028646  4.55916351633731
 76   -1.8922495249873   4.5106278636412
 77  -2.07408337692845  4.45710766429808
 78   -2.2541728427476  4.39862744050119
 79  -2.43232669734021   4.3352208848829
 80  -2.60834636003014  4.26693268617519
 81  -2.78202641028901  4.19382039175195
 82  -2.95315535901679  4.11595626588024
 83   -3.1215166733584  4.03342909766199
 84  -3.28689004320711  3.94634590890348
 85  -3.44905286607129  3.85483351012613
 86  -3.60778191418305  3.75903985330543
 87  -3.76285513416819  3.65913513338307
 88  -3.91405351610998  3.55531259777049
 89  -4.06116295655076  3.44778903443044
 90  -4.20397603030207  3.33680492491526
 91  -4.34229358054121  3.22262426882528
 92   -4.4759260373917  3.10553410994861
 93  -4.60469438388943  2.98584382077362
 94  -4.72843070669603   2.8638842295143
 95  -4.84697829869047  2.74000670009999
 96  -4.96019132297118  2.61458229794161
 97  -5.06793410397407  2.48800118875847
 98   -5.1700801827379  2.36067241843781
 99  -5.26651136096331   2.2330241982264
100  -5.35711706587504  2.10550475467152
101  -5.44179449292852  1.97858366286492
102  -5.52045013691909  1.85275331825775
103  -5.59300347105925  1.72852970839677
104  -5.65939371664404  1.60645081461138
105   -5.7195907041389  1.48706949749101
106  -5.77361090315096  1.37093532399488
107  -5.82153942028895  1.25855556430024
108  -5.86355846353508  1.15031830705253
109  -5.89998190647923  1.04634786568102
110  -5.93129261087728  0.94624423108697
111  -5.95816680796756 0.848654788366352
112  -5.98142299696445 0.750759745767814
113  -6.00172897308132 0.648391991768559
114  -6.01909086015948 0.537668271367706
115  -6.03386179763939 0.403523722152398
116  -6.02089299370684 -0.206814508853257
117  -6.13095089810854 -0.82939708536416
118  -6.54186135066119 -1.20618654929155
119  -7.10596160611052 -1.22122197246248
120  -7.53570671894833 -0.890723982731788
121  -7.72108289634263 -0.395577179469967
122  -7.49758549342492 0.525954836870608
123  -6.94792986245863  1.27806695399706
124  -6.27529651405098   1.9233027919878
125  -5.57480025350257    2.531539592432
126  -4.87458737363934  3.13822286442221
127  -4.15730004675596  3.73196795674326
128  -3.33831402064419  4.24190567366274
129  -2.43829755477497  4.63547779498865
130  -1.39768656406368  4.89119840853728
131  -0.0130153108324966  5.54106932276109
132   1.10498203848577  5.48585185866554
133   2.20053438651455  5.25928412642778
134    3.2476972280568   4.8693038958733
135   4.22428568909132  4.32884713468089
136   5.11099593656708  3.65494890308727
137   5.94492897692028   2.9181715233728
138   6.74803557119642  2.14584535070755
139   7.47692870246655  1.29723008031539
140   7.97209479769456 0.287377452652599
141   7.89980372498387 -0.839185806784786
142   7.44134423639662 -1.41432023554111
143     6.746108533005 -1.64452115536372
144   6.03765981953583  -1.4840284628054
145   5.40706516251079 -1.13944773098748
146   4.66883020575195  -1.3004464266074
147   4.53867400551659 -1.30559064827337
148   4.43963529998882 -1.20733788706312
149    4.3506387177611 -1.09878716228806
150    4.2696910155118 -0.984105317768883
151   4.19677118547868 -0.864255957266058
152   4.13056157488097 -0.741077989703493
153   4.06921228363961 -0.616332430543016
154   4.01097949973329 -0.491313762052795
155   3.95440602206653 -0.366908152883882
156   3.89832597281574 -0.243721565844281
157   3.84182800295692 -0.122177976122709
158   3.78421382856952 -0.00258286953507462
159   3.72495953534735 0.114837169596542
160   3.66368093548734 0.229909392309219
161   3.60010339747921 0.342498454389547
162   3.53403647082822 0.452495224690301
163   3.46535336366752  0.55980894721044
164   3.39397497712829  0.66436169579084
165   3.31985792078088  0.76608449006734
166   3.24298579632401 0.864914658582323
167   3.16336302621659 0.960794147925515
168    3.0810105741942  1.05366854181581
169   2.99596301197945  1.14348659824529
170   2.90826650108975  1.23020014772207
171   2.81797736412028  1.31376422554224
172   2.72516100945358  1.39413733714814
173   2.62989104576862  1.47128177825937
174   2.53224847936971  1.54516395072513
175   2.43232093050452  1.61575463120536
176   2.33020183680251  1.68302916325099
177   2.22598963475235  1.74696755457137
178   2.11978692543221    1.807554470638
179   2.01169963993419  1.86477912354658
180   1.90183622434559   1.9186350613804
181   1.79030686492174   1.9691198682391
182   1.67722277227035  2.01623478863809
183   1.56269553991524  2.05998429219211
184   1.44683658832547  2.10037559547282
185   1.32975670101984  2.13741815784006
186   1.21156565515099  2.17112316710348
187   1.09237194532824  2.20150302931467
188  0.972282596506299  2.22857087505739
189  0.851403059581409  2.25234009250972
190  0.729837181854663  2.27282389547369
191  0.607687243647626  2.29003493263593
192  0.485054051968781  2.30398494262622
193  0.362037082103323  2.31468445802315
194  0.238734658213464   2.3221425603331
195  0.115244164385393  2.32636668712483
196  -0.00833772204580125  2.32736249190703
197  -0.131914782689464   2.3251337569443
198  -0.255391003307475  2.31968235896753
199  -0.378670319338867  2.31100828758933
200  -0.501656368968405   2.2991097161274
201  -0.624252261012415  2.28398312440833
202  -0.746360365045279  2.26562347291571
203  -0.867882131412968  2.24402442730257
204  -0.988717949028086  2.21917863176163
205  -1.10876704904998  2.19107802899276
206  -1.22792746264279  2.15971422349577
207  -1.34609604087817  2.12507888363316
208  -1.46316854440112  2.08716417636043
209  -1.57903980959505  2.04596322674755
210  -1.69360399656204  2.00147059248874
211  -1.80675492219422   1.9536827416299
212   -1.9183864789142  1.90259851988844
213  -2.02839313633979  1.84821959239052
214  -2.13667051930846  1.79055084362414
215  -2.24311605163605  1.72960071913802
216  -2.34762965108303  1.66538149323248
217  -2.45011445782198  1.59790944879694
218  -2.55047757696946  1.52720495871854
219  -2.64863081634295  1.45329246305429
220  -2.74449140455603  1.37620034253755
221  -2.83798268303613  1.29596069709997
222   -2.9290347798614  1.21260904808949
223  -3.01758529499088  1.12618399497664
224  -3.10358005730108  1.03672687184777
225   -3.1869740559659 0.944281466207158
226  -3.26773270454255 0.848893882849921
227  -3.34583366810039 0.750612659071684
228  -3.42126957360719 0.649489264468719
229  -3.49405203113559 0.545579149498544
230  -3.56421751302458 0.438943543221365
231  -3.63183575601317 0.329652246426579
232  -3.69702144075745 0.217787732662587
233  -3.75994992298522 0.103450982398055
234  -3.82087769401549 -0.0132303103711672
235  -3.88016801137237 -0.132090097313088
236  -3.93832181146189 -0.252907020108702
237  -3.99601374241769 -0.375378750998528
238  -4.05413299088549 -0.499081698770887
239  -4.11382754868142 -0.623406641115166
240  -4.17654360816181 -0.747459245038748
241  -4.24402128507925 -0.86993070374355
242  -4.31811184833118 -0.989039555427281
243  -4.40013638497318 -1.10292819878465
244  -4.49011343823712 -1.21063531582348
245  -4.59003218644276 -1.30795968804476
246  -4.72036152918342 -1.30140386974368
247  -5.45789652637175 -1.13454324869869
248  -6.08763222195756 -1.48007469483223
249  -6.79453249568299 -1.64558003263245
250  -7.49228470860657 -1.42389468115227
251  -7.95781878701234 -0.854257906753873
252  -8.05258930949906 0.270675475238076
253  -7.56143760913532  1.28428001007187
254  -6.84136739712763  2.14453345539939
255  -6.02719373233763  2.91389151001798
256  -5.17815339955118  3.64450218219036
257  -4.27530840230256  4.30859735684965
258  -3.28791343201337  4.83892333963704
259  -2.22792389748377  5.20545391085977
260  -1.12553660480735  5.41570336105378
