// Id               X                Y
  1  -0.069650602489456 -0.0809914586458552
  2  0.890968696003806 -0.0984953940485064
  3   1.81048104953013 0.013914783621639
  4   2.67681721371203 0.324057971900075
  5   3.47415776160917 0.759034707375572
  6   4.23071986176449  1.23601747916984
  7   4.98637149251571  1.69384644109625
  8   5.77558516672854  2.07490602264487
  9    6.6145098895781  2.31750182025773
 10   7.48839485065829  2.35892325157875
 11   8.34105200840347  2.12405549946054
 12   8.73604330088407  1.82314274268881
 13   9.00801977619914  1.37730146580956
 14   9.01314344194553 0.814140551179587
 15   8.65250860137063 0.396554351092911
 16   7.98074556423653 0.413316051285862
 17   6.83183532965406 0.835873427118049
 18   6.79261738060068 0.824188400160578
 19   6.71493191035102 0.795885778558894
 20   6.58840418907589 0.735467090794458
 21   6.44892245870449 0.650309238675062
 22   6.31215906605793 0.551932357025251
 23   6.18392391183785 0.451444170798528
 24   6.06139498411084 0.352854528030771
 25   5.94023539883565 0.256909095277622
 26   5.81731855579038 0.164098261556313
 27   5.69094403928771 0.075329427424908
 28   5.56047779719283 -0.00827295400900564
 29   5.42594369032825 -0.0856894914542771
 30   5.28767788146604 -0.156210808370706
 31   5.14612249739701 -0.219477766492342
 32   5.00176808501382 -0.275418921563938
 33   4.85514198643993 -0.324180625430051
 34   4.70676457211663 -0.36608049987326
 35   4.55709870731536 -0.401563101991038
 36   4.40653034652491 -0.431149908089249
 37    4.2553707153521 -0.455394487272004
 38   4.10385575494652 -0.474849364963863
 39   3.95214038983714 -0.490042354417955
 40   3.80030705397661 -0.501459343087811
 41   3.64839775449596 -0.509534629651534
 42   3.49644982654586 -0.51465052400223
 43   3.34451524489188 -0.51714386472516
 44   3.19266328490226 -0.517315196722518
 45   3.04097550383568 -0.515437770865349
 46   2.88953944012195 -0.51176522989365
 47   2.73844334423324 -0.506537642475183
 48   2.58777236848854 -0.499985828307189
 49   2.43760599451013 -0.492334059277982
 50   2.28801638540132 -0.483801331910133
 51   2.13906762053265 -0.47460150172578
 52   1.99081575401931 -0.464942609134778
 53   1.84330937513495 -0.455025694581307
 54   1.69659051653004 -0.445043357992759
 55   1.55069578951385 -0.435178252223323
 56   1.40565707372932 -0.425601591663478
 57   1.26150107809392 -0.416471705646378
 58    1.1182472159336 -0.407932659232262
 59  0.975902852441297 -0.400112960916477
 60  0.834455861058532 -0.393124482032786
 61  0.693866289952126 -0.387061834859744
 62  0.554059357010974 -0.382002401724875
 63  0.414923272941865 -0.378007092322353
 64  0.276314093354789 -0.375121607580662
 65  0.138065581858257 -0.373377727946557
 66  -4.52212618549725e-07 -0.372794228623136
 67  -0.13806631282248 -0.37337733029992
 68  -0.276314369510535 -0.37512081172638
 69  -0.414922975775865 -0.378005901858183
 70  -0.55405854630522 -0.382000830266003
 71  -0.693865143067222 -0.387059908992812
 72  -0.834454585404516 -0.393122240205232
 73  -0.975901618750162 -0.400110450044774
 74  -1.11824613385356 -0.407929931643672
 75  -1.26150020710581 -0.416468817760573
 76  -1.40565644672446 -0.425598604026609
 77  -1.55069543320056 -0.435175229956645
 78  -1.69659046384791 -0.445040371058286
 79  -1.84330966966823 -0.455022817625896
 80  -1.99081644990903 -0.46493992105428
 81  -2.13906878128141 -0.474599085175051
 82  -2.28801808210591 -0.483799272786633
 83  -2.43760830392206 -0.492332446153269
 84  -2.58777537141075 -0.499984751718933
 85  -2.73844712343399 -0.506537193848511
 86  -2.88954407708216 -0.511765499849429
 87  -3.04098107452503 -0.515438846721518
 88  -3.19266985429328 -0.517317159021648
 89  -3.34452286020081 -0.517146782769302
 90  -3.49645851100524 -0.514654450567768
 91   -3.6484075052672 -0.509539595088925
 92  -3.80031784777672 -0.501465348802476
 93   -3.9521521973294 -0.490049365416523
 94   -4.1038685564114 -0.474857301559638
 95  -4.25538450417722 -0.455403217865389
 96  -4.40654511292797 -0.431159247008942
 97   -4.5571144136152 -0.401572815342098
 98  -4.70678112519638 -0.36609032211155
 99  -4.85515921455033 -0.324190288086001
100  -5.00178571874092 -0.275428196304999
101  -5.14614018158014 -0.219486513107096
102   -5.2876951995298 -0.156219026921467
103  -5.42596018281387 -0.0856973834065667
104   -5.5604929436879 -0.00828101428059327
105   -5.6909572775693 0.0753203244322874
106  -5.81732933297429 0.164086808042255
107  -5.94024318621732 0.256893514390821
108  -6.06139912576249 0.352832463789234
109   -6.1839231905866 0.451412412840418
110  -6.31215063104425 0.551886321326568
111  -6.44889978002957 0.650242932531595
112  -6.58835842081543 0.735377745967154
113  -6.71485708728804 0.795778191959742
114  -6.79252513735824  0.82407425571318
115  -6.83175012223449 0.835761655726069
116  -7.98066922299471 0.413254714666242
117  -8.65243246697562 0.396524307057725
118  -9.01304598514586 0.814117452241015
119   -9.0079300004609  1.37724127329948
120  -8.73601115192632  1.82306200006456
121   -8.3411376544254  2.12396405737081
122  -7.48870754592667  2.35889675958365
123  -6.61523216331311  2.31768619397692
124  -5.77698796058491   2.0756682300641
125  -4.98891514321388    1.695862944377
126  -4.23573416746761  1.24005147815192
127  -3.48575375681514 0.764249814916959
128  -2.70375944415466 0.324861519163946
129  -1.86227360959171 -0.000803483192037892
130  -0.969915878868429 -0.130525855197855
131  -0.001441497147222 0.518227121986955
132  0.882593267502727 0.489171616694092
133   1.75707754498959 0.625414521709548
134   2.58783503990606 0.936969833391301
135   3.36885269864993  1.37129274553305
136   4.13557826000485  1.84993830696508
137   4.92865684785473  2.31175774551284
138   5.78580950989922  2.69398384138489
139   6.80289707607275  2.90518382653616
140   7.88140538360034  2.82973269662034
141   8.83624006764244  2.27989472999894
142   9.27085616136055  1.72090606271264
143    9.4235658107753  1.02105092826289
144   9.26022487693571 0.312630500175283
145   8.91855585473309 -0.344787825599826
146     9.006943944709 -1.15351587200571
147   9.00694380503794 -1.15351607760535
148   8.89166090837539 -1.27893082999802
149   8.76552960746541 -1.38037941490183
150   8.64290530228458 -1.46949648742599
151   8.51168513525047 -1.56108768394355
152   8.37485228898478 -1.66179257992828
153   8.23474723863102 -1.77143998297077
154   8.09199433981114 -1.88579327987805
155   7.94643668611649 -2.00067695463835
156   7.79761047086401 -2.11301749876436
157   7.64496271135101 -2.22075104307738
158   7.48800643320603 -2.32261983421708
159   7.32645442302443 -2.41801458748274
160   7.16029452968905 -2.50682885609111
161   6.98975423624663 -2.58929189946307
162   6.81517577610795 -2.66578797867193
163   6.63690387333474 -2.73671629283746
164    6.4552466880438 -2.80242925228732
165   6.27048123907198 -2.86322645218397
166   6.08286256699815 -2.91936434551106
167   5.89262883324978 -2.97106539687088
168   5.70000861118323 -3.01852831337536
169   5.50522992796162 -3.06194040243656
170   5.30852425970819 -3.10148821802081
171   5.11012280779377 -3.13736320561437
172   4.91024979649093 -3.16976241044761
173    4.7091176220195 -3.19888652321962
174   4.50692460660527 -3.22493756723995
175   4.30385415114845 -3.24811735550014
176   4.10007432816478 -3.26862680308553
177   3.89573755510449 -3.28666572857582
178   3.69098027741338 -3.30243273523067
179   3.48592269416409 -3.31612486295218
180   3.28066858385946 -3.32793684753835
181   3.07530526213061 -3.33805997298796
182    2.8699037035818  -3.3466805758435
183   2.66451888664595  -3.3539782696978
184   2.45919039120391 -3.36012397369185
185   2.25394326377899 -3.36527781106056
186    2.0487892316455  -3.3695868947969
187   1.84372834862502 -3.37318305805523
188   1.63875113521549 -3.37618068264341
189   1.43384132205581 -3.37867488836116
190   1.22897915650045 -3.38074052801534
191   1.02414490078769 -3.38243250975987
192  0.819322010215016   -3.383787733849
193  0.614499230316793 -3.38482851821376
194  0.409671056774115 -3.38556682370204
195  0.204836755553163 -3.38600825799103
196  -1.30778774649882e-06  -3.3861550603127
197  -0.204839396787854 -3.38600779894287
198  -0.409673764867953 -3.38556589659166
199  -0.614502021659008 -3.38482711419669
200  -0.819324874919798  -3.3837858565576
201  -1.02414781320106 -3.38243018332622
202  -1.22898208938781   -3.380737797465
203  -1.43384425682442 -3.37867181431819
204  -1.63875406513557 -3.37617733487716
205  -1.84373127667451 -3.37317951137219
206  -2.04879216680738 -3.36958322794467
207  -2.25394621823176 -3.36527410751869
208  -2.45919337896356 -3.36012032297085
209  -2.66452192343952 -3.35397476819296
210  -2.86990680727638 -3.34667732699084
211  -3.07530845314126 -3.33805708687755
212   -3.2806718853935 -3.32793444007078
213  -3.48592613218599 -3.31612305458611
214  -3.69098388019406 -3.30243164931301
215  -3.89574135237385 -3.28666548906533
216  -4.10007834986528 -3.26862753148609
217  -4.30385842572005 -3.24811916702329
218  -4.50692915889684 -3.22494056642396
219  -4.70912247105487 -3.19889079959438
220  -4.91025495328877 -3.16976803531016
221  -5.11012827329098 -3.13737023116633
222  -5.30853002263688  -3.1014966796272
223  -5.50523596232882 -3.06195032358237
224  -5.70001487351782 -3.01853971109235
225  -5.89263526034061 -2.97107828414999
226  -6.08286907444532 -2.91937872789358
227  -6.27048771943882 -2.86324231913974
228  -6.45525300968306 -2.80244656570122
229   -6.6369098805243 -2.73673497413962
230  -6.81518128989266 -2.66580789165283
231  -6.98975905205433 -2.58931283215524
232  -7.16029842934912 -2.50685052033699
233  -7.32645723349518 -2.41803667045766
234  -7.48800813971051 -2.32264210012551
235  -7.64496355432989 -2.22077344178609
236  -7.79761096820687 -2.11304023424438
237   -7.9464375875806 -2.00070049578489
238  -8.09199655792582 -1.88581828664517
239    -8.234751763407 -1.77146707081455
240  -8.37486005952665 -1.66182163920857
241  -8.51169687333584 -1.56111626593178
242  -8.64292121375614   -1.469518973165
243   -8.7655515674754 -1.38039055499028
244  -8.89168342351209  -1.2789317902101
245  -9.00695763199236 -1.15352241432034
246  -9.00695763857796 -1.15352240462596
247  -8.91851979496351 -0.344805693845706
248  -9.26016771912107 0.312615885357239
249  -9.42349502589423  1.02102805764676
250   -9.2707837081334   1.7208687629718
251  -8.83617828545352  2.27985141614623
252  -7.88144645677842  2.82982356445183
253   -6.8029714397026  2.90548621882796
254  -5.78582571889196  2.69464075512079
255  -4.92796581384629  2.31321688457518
256  -4.13322141615213  1.85245056732283
257  -3.36471172813471  1.37343849031852
258  -2.58434322190618  0.93305487481527
259  -1.75655804964273 0.606114077668334
260  -0.882377584892818 0.450570600442895
