// Id               X                Y
  1  -0.0702068829183246 -0.058724289102577
  2  0.881175536447501 -0.0741861197954558
  3   1.80629188769422 0.00214570887898077
  4    2.6885167431246 0.277561793387364
  5   3.49862906902549 0.704078920502963
  6   4.25924164391444  1.18851823267832
  7   5.01740943784392  1.65421560736472
  8   5.80889590893919  2.04366724984113
  9   6.64639509588216  2.31323476510639
 10   7.52336987329917  2.40496741095437
 11   8.39419826978719    2.202810741981
 12   8.76634182876547  1.87769379498224
 13   8.95412361317316  1.41798154257345
 14   8.86212350573967 0.928757150259125
 15   8.50433966369629 0.580372298518146
 16   7.81653731596839 0.509901677413427
 17   6.96427008342134 0.636716108637539
 18   6.96426155406917 0.636715327852303
 19   6.82969394324717  0.61926976454951
 20   6.66305443257869 0.583137743605276
 21   6.51072678149222 0.536226086763449
 22   6.36221245707264 0.478346396897916
 23   6.22249368482879 0.414074265146199
 24   6.08594704586721 0.343548691059071
 25   5.95017728747969 0.267781329833572
 26   5.81592551294453 0.189583581240383
 27   5.68253506354104 0.111025650688002
 28   5.54916978783592 0.0338686379134102
 29   5.41493021840225 -0.0404682089749242
 30   5.27898209194467 -0.110864844642345
 31   5.14069339769354 -0.17642377041273
 32   4.99972112644805 -0.236424996783559
 33   4.85602559744567 -0.290326561346177
 34   4.70982395859535 -0.337787517455412
 35   4.56150861440567 -0.378685123643148
 36   4.41156023032827 -0.413109411756321
 37   4.26047877558755 -0.44133385760583
 38   4.10873889565879 -0.463771960234579
 39   3.95670776516756 -0.480936050159953
 40    3.8045289790326 -0.493392906184848
 41   3.65225117253389 -0.501703835256613
 42   3.49993486886321 -0.506398990546314
 43   3.34765284410012 -0.507972167317765
 44   3.19548396752598 -0.50687797329781
 45   3.04351021369194 -0.50353072583561
 46   2.89181442887747 -0.49830519085569
 47   2.74047834102074 -0.491538851910069
 48   2.58958093922596 -0.483535271941155
 49   2.43919712166005 -0.474568060288119
 50   2.28939629452247 -0.464884955995639
 51   2.14024161428421 -0.454711675790282
 52   1.99179023997512 -0.444255279686613
 53   1.84409284888219 -0.43370676189373
 54    1.6971929118365 -0.423242832289895
 55    1.5511288991986 -0.413027155787003
 56   1.40593510288712 -0.40321082761274
 57   1.26163908948611 -0.393932099026349
 58   1.11826203383326 -0.385315971136787
 59  0.975816902720798 -0.377473482196368
 60  0.834294627865451 -0.370500446837739
 61  0.693660034070022 -0.364477198176289
 62  0.553843247140128 -0.359468597814585
 63  0.414730121619178 -0.355524687171664
 64  0.276169875000603 -0.352682367448269
 65  0.137990684078309 -0.350967014349983
 66  7.75587141547826e-07 -0.350393427854276
 67  -0.137989312315914 -0.350966555492914
 68  -0.276168752741765 -0.35268146031392
 69  -0.414729258749813  -0.3555233489279
 70  -0.553842681255754 -0.359466853161287
 71  -0.693659527118149 -0.364475068198621
 72  -0.834294114972361 -0.370497962323915
 73  -0.975816422083353 -0.377470685299941
 74  -1.11826150100389 -0.385312905127154
 75  -1.26163858072317 -0.393928823846375
 76  -1.40593472344578 -0.403207414314768
 77  -1.55112864487052 -0.413023677024304
 78  -1.69719285763095 -0.423239374167768
 79  -1.84409309959315 -0.433703420304001
 80  -1.99179083277127 -0.444252152020645
 81  -2.14024261196718 -0.454708865788521
 82  -2.28939779745423 -0.464882572058775
 83  -2.43919920535286 -0.474566207890149
 84  -2.58958367603085 -0.483534051330643
 85   -2.7404818279622 -0.491538354987647
 86  -2.89181876450629 -0.498305494202867
 87  -3.04351548568669 -0.50353188448062
 88  -3.19549026176057 -0.506880015478101
 89  -3.34766023829354 -0.507975089056445
 90  -3.49994341517433 -0.506402751855895
 91   -3.6522608870563 -0.50170835951123
 92  -3.80453983822323 -0.493398083098352
 93  -3.95671970807269 -0.480941742580961
 94  -4.10875185170365 -0.463778012041834
 95  -4.26049269800848 -0.441340100873215
 96  -4.41157503644464 -0.413115691894763
 97  -4.56152416558757 -0.378691333252438
 98  -4.70984008372606 -0.337793628731698
 99    -4.856042132951 -0.290332652626339
100  -4.99973794648837 -0.236431275203864
101  -5.14071044609608 -0.176430584265486
102  -5.27899937345322 -0.110872702514866
103  -5.41494777539771 -0.0404777994299853
104  -5.54918760760874 0.033856397848728
105  -5.68255297390463 0.111009576275641
106    -5.815943039808 0.189562204850808
107  -5.95019352370017 0.267752973453982
108  -6.08596035277094 0.343511549646751
109  -6.22249956522064 0.414025777828578
110  -6.36220701960796 0.478285482652673
111  -6.51070402206375 0.536152200109704
112  -6.66301245185169 0.583053960521381
113  -6.82963082356469 0.619180273124823
114  -6.96418590569384 0.636625717310673
115  -6.96419442495217  0.63662649732873
116  -7.81644241219926 0.509857995489973
117  -8.50422243213702 0.580334217119131
118   -8.8620191832435 0.928637589215423
119  -8.95417992041138  1.41774729072827
120  -8.76676178676537  1.87738834080377
121  -8.39520239577369  2.20253770630984
122  -7.52520745072715  2.40513392821899
123  -6.64924164750012  2.31422598061207
124   -5.8129969658476  2.04661040964367
125  -5.02327253504395  1.66012376690851
126  -4.26944878365528   1.1968665749396
127  -3.52017436535332 0.710285267672769
128  -2.73181944956085 0.270884973133183
129  -1.87633880636089 -0.0302414375943227
130  -0.974636263454689 -0.123433485107051
131  -0.00210465075344908 0.523849843379362
132  0.884838291156847 0.525292234316225
133   1.76734430935664 0.614459755466816
134   2.61213207048841 0.891013522985455
135   3.39888155545223  1.31674415088046
136   4.16181462549143  1.80226667132517
137   4.95145373910175  2.27167967632463
138   5.80840841381859  2.66237441364698
139   6.82893204402251  2.90255229579405
140   7.91278389584061   2.8726878782621
141   8.89011647254955  2.37647769068759
142   9.30722411310338  1.81773254866371
143   9.41992970984399  1.14864368855096
144     9.265629080307 0.597839712588986
145   9.08060147338204 0.108652925476986
146   9.25237392613231 -0.547191684589286
147   9.30206937576387 -1.01656985908401
148   9.11469813835553 -1.32763035835717
149   8.94313593850492 -1.47378197326576
150   8.79002217617969 -1.57244661720337
151   8.62755120593546 -1.66295078126511
152   8.46409284401384   -1.749989603845
153   8.29618826728509 -1.84190742464935
154   8.13010541610761  -1.9385372015287
155   7.96822688489312 -2.03841042694809
156   7.80880162084649  -2.1404903006583
157   7.65057965296502 -2.24263419019868
158    7.4920710118308 -2.34283743491002
159   7.33185753422854 -2.43949684204789
160   7.16878963494906 -2.53144302640912
161   7.00204324258345 -2.61789821676691
162   6.83111257353812 -2.69841359914884
163   6.65578382363669 -2.77280899688133
164   6.47609492119376 -2.84112283848625
165    6.2922759643737 -2.90356695161179
166   6.10467280247848 -2.96047723530153
167   5.91366762827729 -3.01225744177053
168   5.71961786137929  -3.0593215552359
169   5.52288048165988 -3.10203553572657
170   5.32390945570401 -3.14068056150988
171   5.12314883282856 -3.17548915980458
172   4.92095746595288 -3.20667706333119
173   4.71763058038618 -3.23445582763378
174   4.51341920251863 -3.25904226311994
175   4.30853959352557 -3.28066260144119
176   4.10317794797566 -3.29955117717907
177   3.89749337999411 -3.31594583158594
178   3.69162043358721 -3.33008255302064
179   3.48567155034711 -3.34219104341831
180   3.27973961451423 -3.35249185237387
181   3.07389963051156 -3.36119497161281
182   2.86820900957618 -3.36849931148123
183   2.66270815684263  -3.3745923464246
184   2.45742101210594 -3.37964950690247
185   2.25235260211564  -3.3838331145512
186   2.04748794973506  -3.3872906293997
187   1.84279447364006  -3.3901523895923
188   1.63822189768543 -3.39252933888153
189   1.43370474022922  -3.3945111031279
190   1.22917733856062 -3.39616494882608
191   1.02458000760538 -3.39753644612707
192  0.819870382521267 -3.39865186381456
193  0.615036300141355 -3.39952222664172
194  0.410091743938829 -3.40014853237055
195  0.205064594679632 -3.40052703100947
196  -1.63268655280349e-06 -3.40065357554197
197  -0.205067705550965 -3.40052647862476
198  -0.410094674810979 -3.40014744106921
199  -0.615039072543346 -3.39952061944645
200  -0.81987297336924 -3.39864976930818
201  -1.02458265249866 -3.39753389378766
202  -1.22918009048838  -3.3961619721208
203  -1.43370754859162 -3.39450774253828
204  -1.63822484051831 -3.39252564278917
205  -1.84279748323357 -3.39014842022024
206  -2.04749094680814 -3.38728646297497
207  -2.25235563226408 -3.38382883827578
208   -2.4574240586322 -3.37964522144968
209   -2.6627111878303 -3.37458816427737
210  -2.86821207125352 -3.36849535209624
211  -3.07390275512901 -3.36119136216879
212  -3.27974280881304 -3.35248872719434
213  -3.48567485588998  -3.3421885390131
214  -3.69162390490264  -3.3300808058714
215  -3.89749705593621 -3.31594497696566
216  -4.10318187018575 -3.29955134436677
217  -4.30854381210932 -3.28066390856948
218  -4.51342375913435 -3.25904481405175
219   -4.7176355043649 -3.23445970812066
220   -4.9209627798261 -3.20668233585787
221  -5.12315455095117 -3.17549585885414
222  -5.32391557633479 -3.14068868970333
223  -5.52288697354334 -3.10204506139522
224  -5.71962462638622 -3.05933241738885
225   -5.9136744610335 -3.01226956406517
226  -6.10467944719661 -2.96049052706108
227  -6.29228215254857 -2.90358132197152
228  -6.47610039317721 -2.84113822970247
229  -6.65578835876105 -2.77282542810061
230  -6.83111604110101 -2.69843120441063
231   -7.0020456379434 -2.61791727622172
232  -7.16879111312447 -2.53146397192248
233   -7.3318583907692 -2.43952024737878
234  -7.49207164942012 -2.34286395259043
235  -7.65058047778684 -2.24266444223989
236  -7.80880292506197 -2.14052467515859
237  -7.96822874964701  -2.0384487849591
238  -8.13010793958714 -1.93857842864778
239  -8.29619377744617 -1.84194815459177
240  -8.46410307016726 -1.75002634916798
241    -8.627570302653   -1.662978794121
242  -8.79005016758128 -1.57246281323393
243   -8.9431719144327 -1.47378274358736
244  -9.11472932263812 -1.32761592504777
245  -9.30207433466235 -1.01654822591668
246  -9.25235272300812 -0.54719033208566
247  -9.08052642154097 0.108648630018066
248  -9.26557973696715 0.597821880176502
249  -9.41993377580015  1.14857291161223
250  -9.30733311530565   1.8176872990195
251  -8.89025381483057  2.37649603199887
252  -7.91325000455233  2.87330135406562
253  -6.82940324321815  2.90401768511476
254   -5.8080125107413  2.66501182085477
255  -4.94889734114139  2.27626785699052
256  -4.15672846947158  1.80766882240716
257  -3.39354793217634  1.31794303440054
258  -2.61131908194772 0.877823062669381
259    -1.771768551133 0.576042775768599
260  -0.887484768976383 0.473689118624552
