// Id               X                Y
  1  0.00896007742785413  3.50214373590665
  2   1.09974625703334   3.4627857624101
  3   2.19065374951567  3.36662829554709
  4   3.25800207020798  3.15856574305899
  5   4.28399509611662  2.83838854385104
  6   5.16440510565631  2.46727325177781
  7   6.05415092957104  2.14011135608996
  8   6.96882424385469  1.88044284908276
  9   7.88599059866915  1.63072848904324
 10   8.74484934162413  1.26039316814072
 11   9.39933901752859 0.594119116538108
 12   9.49261041103741 0.0853761584663824
 13    9.3095816307199 -0.402451212184678
 14   8.87151889931065 -0.694584653047237
 15   8.34860532188807 -0.674701845336074
 16   7.91692372341082 -0.400730585263001
 17   7.59843069473646 -0.0781840099494802
 18   7.53938409651213 -0.0168417810017309
 19   7.48515540131946 0.0397666954022752
 20   7.43061228040933 0.0969581042574537
 21   7.37097066945315 0.159647163832783
 22   7.30484770329351 0.229333102921352
 23   7.23201177754227 0.306176141852473
 24   7.15256843651777 0.389954703516924
 25   7.06667736366546  0.48028061874081
 26   6.97448696635963 0.576675772634326
 27   6.87610326663257 0.678590348653898
 28    6.7715809123724 0.785413203314736
 29   6.66092363323687 0.896477603406127
 30   6.54409261874802  1.01106592969238
 31   6.42102074645893  1.12841439092911
 32   6.29163095912991  1.24771876374827
 33   6.15585700947042  1.36814198287196
 34   6.01366476088606    1.488824235762
 35   5.86507221963655  1.60889595013105
 36   5.71016652667054  1.72749369762455
 37   5.54911631022688  1.84377858665556
 38   5.38217814761908  1.95695623091428
 39   5.20969643060795  2.06629694128473
 40   5.03209663778921  2.17115450428503
 41   4.84987278199249  2.27098187699099
 42   4.66357046434138  2.36534239143745
 43   4.47376738041557  2.45391558140508
 44   4.28105320868726  2.53649740228499
 45   4.08601058785581  2.61299525537793
 46   3.88919845965935  2.68341871969781
 47   3.69113854847429  2.74786716952941
 48   3.49230527910656  2.80651551694332
 49   3.29311906419737  2.85959921494023
 50   3.09394264223503  2.90739945532677
 51   2.89508000611684   2.9502292558021
 52   2.69677740700386   2.9884208959585
 53   2.49922592323628  3.02231495690843
 54    2.3025651271266  3.05225105487086
 55    2.1068874463699  3.07856023682261
 56   1.91224288926357  3.10155892254631
 57   1.71864387554583  3.12154422594147
 58   1.52606998216215   3.1387904624765
 59   1.33447247269186  3.15354664262491
 60   1.14377852924756  3.16603475735089
 61  0.953895146305581  3.17644867652425
 62  0.764712677806807  3.18495350095046
 63  0.576108053079083   3.1916852308755
 64  0.387947694958046  3.19675063658856
 65  0.200090186208407  3.20022723901445
 66  0.0123887391506402  3.20216332941518
 67  -0.175306470723914  3.20257797737034
 68  -0.363146042636151  3.20146099523246
 69  -0.551279093265042  3.19877284560731
 70  -0.739850936914928  3.19444449656416
 71  -0.929000636132821  3.18837724776067
 72  -1.11885835776503  3.18044256998888
 73  -1.30954247336998  3.17048202125353
 74  -1.50115634953746  3.15830732466975
 75  -1.69378478400194  3.14370071725658
 76  -1.88749005871272  3.12641570378031
 77  -2.08230760265971  3.10617837533303
 78  -2.27824128676495  3.08268947679902
 79   -2.4752584119919  3.05562742837994
 80  -2.67328450116422  3.02465252047598
 81   -2.8721980653819  2.98941250380122
 82  -3.07182558690663  2.94954978170087
 83  -3.27193703993147  2.90471037207234
 84  -3.47224235448679  2.85455473402581
 85  -3.67238930951176   2.7987704413112
 86   -3.8719634073113  2.73708652387543
 87  -4.07049031625221  2.66928908809181
 88  -4.26744144814103  2.59523757098098
 89  -4.46224313151843  2.51488070411046
 90  -4.65428961998965  2.42827099925775
 91  -4.84295981179533  2.33557638414481
 92  -5.02763705624351  2.23708759299291
 93   -5.2077308369575  2.13322012776943
 94  -5.38269856518975  2.02451008313829
 95  -5.55206534662747  1.91160382312295
 96   -5.7154395490985  1.79524227394268
 97  -5.87252236118873  1.67624126842664
 98  -6.02311023302438  1.55546977779026
 99  -6.16708996542381  1.43382791923932
100  -6.30442706526219  1.31222636381832
101  -6.43514866289111   1.1915682959446
102  -6.55932272876416  1.07273452395861
103  -6.67703554773285 0.956571816800938
104  -6.78836947181781 0.843884110495442
105  -6.89338294326357 0.735425912921275
106  -6.99209470995217 0.631897024605194
107  -7.08447408472131 0.533937531190987
108  -7.17043915094411 0.442121720427967
109  -7.24986563587102 0.356948363560238
110  -7.32261383185166 0.278819320639206
111  -7.38860299281886  0.20797428151316
112  -7.44805727241018 0.144248128406824
113  -7.50238372503455 0.0861611119441141
114  -7.55631043448988 0.0286901682569954
115  -7.61496133003482 -0.0335111549595561
116  -7.93111482916162 -0.360802851508987
117  -8.36027141308654 -0.639112265851679
118  -8.88341139304512 -0.662943024128278
119  -9.32299360544468 -0.372412824090128
120  -9.50677196563127 0.115568148056806
121  -9.41337796179066 0.624774776302338
122  -8.75834325100944  1.29210213491049
123  -7.89865862296055  1.66571310900879
124  -6.97693311522493  1.92121868228716
125  -6.05535412009888  2.18777768686272
126  -5.15930569128943  2.52081664405453
127  -4.26802959939857  2.89523699444392
128  -3.23442440915413  3.20235580296649
129  -2.17339007563045  3.39201746138939
130   -1.0832008817063  3.45254310663703
131  -0.0114533549118937  4.08775270074504
132   1.07757959874431  4.04805430089333
133   2.16392740383077  3.95097480783014
134   3.23701283802983  3.74425373045374
135   4.28540910729114  3.42744101565725
136   5.31308996991848  3.04476951961291
137   6.34301079467597   2.6730749065811
138   7.38402374799952  2.33157581929853
139   8.41565592712988  1.94671743069772
140   9.35284807128104   1.3504953832081
141   9.87970060548337 0.366279747941248
142   9.80788959833117 -0.353925126349406
143   9.37684733124088 -0.931701182845108
144   8.71902275882944  -1.2154129879768
145   8.01708353557122 -1.32832226100422
146   7.52847155596679 -1.89511110250435
147    7.3792456251259 -1.99177236385487
148   7.17993678222631 -1.95155623778905
149   6.98809420561306 -1.88417909814569
150   6.80570618124784 -1.79603149735146
151   6.63317909846529 -1.69444066548907
152   6.46984958383488 -1.58391965402588
153   6.31477943674221 -1.46731832940023
154   6.16693732316006 -1.34669685241393
155   6.02527200273602  -1.2236494208004
156   5.88876024731623 -1.09944177245559
157   5.75643596416137 -0.975092925897975
158   5.62740422079969 -0.851435128528395
159   5.50084538644481 -0.729159993708527
160   5.37601408456624 -0.608853244283817
161   5.25223615952897 -0.491019722736039
162   5.12890540377115 -0.37610036593595
163   5.00548073690539 -0.264482848801704
164   4.88148390388503 -0.156507508290282
165   4.75649748049706 -0.0524700160276488
166   4.63016293166591 0.0473779003780219
167   4.50217855461629  0.14282858828841
168   4.37229725796193  0.23371860471057
169   4.24032420292624  0.31992830546688
170   4.10611432574509 0.401380654189036
171   3.96956968328027 0.478039286194405
172   3.83063647273816 0.549906028422931
173   3.68930153789497 0.617018114845275
174   3.54558822576652 0.679445272283314
175   3.39955158613216 0.737286744099324
176   3.25127305989711  0.79066822947803
177   3.10085492303337 0.839738678044898
178    2.9484148055809 0.884666893806809
179   2.79408058672069   0.9256379475585
180   2.63798589742492 0.962849447128763
181   2.48026636998368 0.996507751718887
182   2.32105668325428  1.02682423268696
183   2.16048837898315   1.0540116797968
184   1.99868837399341  1.07828093507884
185   1.83577806482147  1.09983781288538
186   1.67187291142094   1.1188803401327
187   1.50708238959045  1.13559632884211
188   1.34151021289483  1.15016127580388
189   1.17525474007316  1.16273657198664
190    1.0084095004296   1.1734679968266
191  0.841063785657547  1.18248446895465
192  0.673303270921415  1.18989702432839
193  0.505210640337967    1.195797994263
194   0.33686620214428  1.20026035877619
195  0.168348486900071  1.20333725443154
196  -0.000265171766055027  1.20506162009798
197  -0.168898069886014  1.20544596850161
198  -0.337473572410043  1.20448227599636
199  -0.505914550445292   1.2021419875715
200  -0.674142807620376  1.19837613874003
201  -0.842078487705414  1.19311560062879
202  -1.00963945796622    1.186271459326
203   -1.1767406665905  1.17773554530656
204  -1.34329347810247  1.16738113345237
205  -1.50920499823288  1.15506383861552
206  -1.67437740949626  1.14062273549429
207  -1.83870735095261  1.12388173428871
208  -2.00208539034902  1.10465124445088
209  -2.16439565379651  1.08273015692538
210  -2.32551569657044  1.05790816951787
211  -2.48531671698308  1.02996846937265
212  -2.64366423093943 0.998690770200145
213  -2.80041933380619  0.96385467982094
214   -2.9554406732847 0.925243347068345
215  -3.10858723581569 0.882647309388466
216  -3.25972200366949 0.835868439289128
217  -3.40871646695062 0.784723876912628
218  -3.55545587715092  0.72904984559309
219   -3.6998450196718 0.668705282082203
220  -3.84181418727068 0.603575269246597
221  -3.98132498905754 0.533574319169757
222  -4.11837566193427 0.458649588817468
223  -4.25300567246977 0.378784087159281
224  -4.38529957743984 0.293999839565343
225  -4.51539028399724 0.204360839630842
226  -4.64346194207815  0.10997550831884
227  -4.76975267659207 0.0109983758939271
228  -4.89455725488461 -0.0923691485398597
229  -5.01822966549689 -0.199878766221014
230   -5.1411855373123 -0.31123552195071
231  -5.26390438599139 -0.426097414008774
232  -5.38693180426928 -0.544073222124044
233  -5.51088183009858 -0.664717175107771
234  -5.63643972121399 -0.787518913022643
235  -5.76436511733702 -0.911887068682262
236  -5.89549496501742 -1.03712471445508
237  -6.03074452691995 -1.16239493309339
238   -6.1711033298773 -1.28667480155407
239  -6.31762141101906 -1.40869529214581
240  -6.47138081614715 -1.52685896034678
241   -6.6334494420002 -1.63910118616954
242  -6.80481222769539  -1.7425645406766
243  -6.98619394224954 -1.83272656193163
244  -7.17726591037836 -1.90225433866089
245  -7.37611525233536 -1.94473762024747
246  -7.52631361598393 -1.84979031270149
247  -8.02178805677877 -1.28898742267244
248  -8.72487570844685 -1.18186846858315
249   -9.3847749563909 -0.902364227628596
250  -9.81872816719965  -0.3264352251981
251   -9.8930563945124 0.393751873289941
252  -9.36708529840272  1.37873599376314
253  -8.43124575406257  1.97710893147867
254  -7.40092344186263  2.36451455116841
255  -6.36232126815186  2.71082943375712
256  -5.33539074163976  3.08783956576227
257  -4.31306862721911  3.48045967113149
258  -3.26397268455661  3.78691734846194
259  -2.18941613467112  3.97596866178635
260  -1.10171543099182  4.04055284970662
