// Id               X                Y
  1  -0.523339809297885  17.8415168105086
  2  0.563504320166609  17.8323948284044
  3   1.62392686359623  17.5838516194379
  4   2.64572230387305  17.2457054760099
  5   3.60540513190498   16.731280382574
  6   4.45210375456231  16.0958181439411
  7   5.21553190177415  15.3320763540511
  8   5.76440986479578  14.4185976356473
  9    6.1797785852759  13.4453927589137
 10   6.60850962555003  12.4706696082788
 11    7.1247668656951  11.5355928491398
 12    7.4589017041983  10.9609464378917
 13   7.75702324338908  10.3645728390043
 14   7.93319772331109  9.71989650325698
 15   7.84489584252144  9.07538218254368
 16   7.36286219507019  8.59595305476905
 17   7.13093375898523  8.53130391080151
 18   6.96341292644145  8.52424382448355
 19   6.80491600363602  8.54696091666385
 20   6.65254780101202  8.59681143662575
 21   6.50861836021672  8.67319166586916
 22   6.37572986568581  8.77448945397561
 23   6.25578394189488  8.90065806188722
 24   6.13339332276273  9.08213473731569
 25   6.03719690762328  9.29451638691527
 26   5.97112050074807  9.52715360349579
 27   5.93330765132419  9.77314527632821
 28     5.919534953102  10.0276615299541
 29    5.9244799094525  10.2877098883687
 30   5.94251908865853  10.5517393521953
 31   5.96820541378622  10.8191507005214
 32   5.99651511706644  11.0898432516609
 33   6.02295772451422  11.3638627110493
 34   6.04361627782475  11.6411630118424
 35   6.05515644687465  11.9214708417029
 36    6.0548218437924  12.2042325625844
 37   6.04042036317836  12.4886213101063
 38   6.01030094890063  12.7735833449811
 39   5.96331929515505  13.0579055293083
 40   5.89879231664247  13.3402893962679
 41   5.81644308661778  13.6194212221739
 42   5.71633937969465  13.8940313476397
 43   5.59882962263305  14.1629393337086
 44    5.4644799977236  14.4250841476575
 45   5.31401587501394  14.6795404016937
 46   5.14826991386985  14.9255227837842
 47   4.96813827989851  15.1623813457118
 48   4.77454562301701  15.3895903919164
 49   4.56841884704926  15.6067334863453
 50   4.35066930405795  15.8134866858092
 51    4.1221828558331  16.0096016033457
 52   3.88381720793281  16.1948893493738
 53   3.63640591084202  16.3692058159397
 54   3.38076809028598  16.5324382352997
 55   3.11772133507115  16.6844927826345
 56   2.84808995870234  16.8252840925438
 57   2.57269033600693  16.9547306804182
 58    2.2922753782621   17.072759952477
 59   2.00748090738263  17.1793085730193
 60   1.71886070383018  17.2742951274294
 61   1.42695315532652  17.3575744481402
 62   1.13231809709646  17.4288763455921
 63  0.835595432946778  17.4877425595176
 64  0.537541681839178  17.5335203707954
 65  0.238949315623664  17.5654504403466
 66  -0.0595709359594781  17.5828323681965
 67  -0.357822650479189  17.5851999190778
 68  -0.655970280119051   17.572427311996
 69  -0.95410519248832   17.544756530365
 70  -1.25190075989327  17.5027560748121
 71  -1.54867831900025  17.4471873195013
 72  -1.84365684386421  17.3788176486867
 73  -2.13612976465134  17.2982699593576
 74  -2.42550234307669  17.2059630962393
 75  -2.71123863074492  17.1021419732504
 76  -2.99281259447126  16.9869456600532
 77  -3.26966745910479  16.8604641309837
 78  -3.54114751586325  16.7227811290175
 79  -3.80649256781988  16.5739925658433
 80  -4.06490084784975   16.414200787836
 81  -4.31557198559557  16.2435112387452
 82  -4.55771264410703  16.0620387914247
 83  -4.79052588707239  15.8699185285733
 84  -5.01319882073601  15.6673178747962
 85  -5.22489414471965  15.4544496946811
 86  -5.42474746379841  15.2315866404418
 87  -5.61187111944794  14.9990767402722
 88   -5.7853651118689  14.7573596826593
 89  -5.94433568937589   14.506982699902
 90  -6.08792212991368  14.2486144323096
 91  -6.21533203148068  13.9830546831321
 92  -6.32588502192754  13.7112376009157
 93  -6.41906418730612  13.4342256385589
 94  -6.49457373916449  13.1531917590014
 95  -6.55240058900348  12.8693879262447
 96  -6.59287672759957  12.5840990746081
 97  -6.61673882520868  12.2985836007105
 98  -6.62518150667743  12.0140040228514
 99  -6.61990149715569  11.7313547332196
100  -6.60313127000775  11.4513974888748
101  -6.57766254016079  11.1746190470508
102  -6.54686090758593  10.9012286609439
103  -6.51467148419875   10.631215423312
104  -6.48560933518501  10.3644857258864
105   -6.4647162369218  10.1010975426023
106  -6.45744657220065  9.84159665440948
107  -6.46942553661242  9.58743029412867
108  -6.50602174361263  9.34135732109225
109  -6.57171869645989  9.10773357885113
110  -6.66929107251723  8.89263282242124
111  -6.79850877919062  8.70396037252221
112  -6.95122981131379  8.55311809808593
113  -7.09707825893383  8.45496659317861
114  -7.25407362061762   8.3858811863013
115  -7.42968654217259  8.34560401497618
116  -7.67167356175035  8.34779833339201
117  -8.25209835529246  8.68368816355218
118  -8.46209051978095  9.23758508519891
119  -8.38887519484933  9.89218904368547
120  -8.14340787738822  10.5023602301294
121  -7.83077801442577  11.0777130125427
122  -7.30801395233369  11.9981684498424
123  -6.87500901538173  12.9625178640112
124  -6.51499607648091    13.94412600562
125  -6.04986063296855  14.8989298748546
126  -5.35653851650823  15.7240229859701
127  -4.56443902465771  16.4110379436864
128  -3.65883509009369  16.9987333619705
129    -2.660336556591  17.3977920685435
130  -1.59787602198606  17.6425574829547
131  -0.51752245150155  18.4174643570778
132  0.584362687984308  18.4053944783146
133   1.66164631575797  18.1684624118782
134    2.7096356260503  17.8193788187732
135   3.69166958526876   17.308226852509
136   4.59471872783023   16.664124284142
137   5.38903144732652  15.8884222008912
138   6.01465278259674  14.9693619657359
139     6.495878872561   13.970976371053
140   6.95958171532056  12.9743778866609
141   7.48638356153341  12.0187985629446
142   7.81161562714542  11.4137802658673
143   8.09926748711768  10.7897825968451
144   8.29429427645355   10.126945745115
145   8.43753669532229  9.44908892268043
146   8.75142091467495  8.87189976651245
147   8.97953013759205  8.22181008374853
148   9.02718240028511  7.64666758031109
149   8.95207796540919  7.16473290904636
150   8.79469249640597  6.77168100379994
151    8.5785766456199   6.4588000538703
152   8.31762796657877  6.21899191274199
153   8.02083880888742  6.04849416156764
154   7.69688337005346  5.94690524744181
155   7.34619434508441  5.91435573889639
156   6.97849250499169  5.95477652361858
157   6.60761989503106  6.06813208745632
158   6.24838299690189  6.24852657800772
159   5.91366641686592  6.48537001047285
160   5.61273900072832  6.76598090177384
161   5.35090814229962  7.07775411733098
162   5.12990880709533  7.40927500491065
163   4.94854108422039  7.75074755537187
164   4.80339472445427   8.0941462958832
165   4.68960837645514  8.43324045635138
166    4.6015961853702  8.76350581799102
167   4.53366638404457  9.08193589078305
168   4.48048180676762  9.38679032068105
169   4.43734900016666  9.67732613334375
170   4.40035211028396  9.95354570427284
171   4.36636492974706  10.2159782428894
172   4.33298106079749  10.4654992279833
173   4.29840057868671  10.7031868324808
174    4.2613041568331  10.9302133546835
175   4.22073511438851  11.1477699391075
176   4.17599923861097  11.3570229615172
177   4.12658363358971  11.5591004120527
178   4.07208992660516  11.7551070276842
179   4.01217338847937  11.9461683348521
180   3.94647671250505  12.1335065981912
181   3.87454390657953  12.3185564339577
182   3.79569441334645   12.503135021356
183   3.70882879075372  12.6896906325427
184   3.61212597981344   12.881655990507
185   3.50259124463441  13.0838953790652
186   3.37548072287515  13.3030381431372
187   3.22392181421487  13.5468711114248
188     3.039641848368  13.8210312816916
189   2.81548332209175  14.1227437294564
190   2.54794583114277  14.4375497658451
191   2.23750789613882  14.7442795309178
192    1.8870081557967  15.0234074944582
193   1.49923093010337  15.2618731866555
194   1.07560098198607   15.452343074265
195  0.617583693262949  15.5897990379958
196  0.130594450237887  15.6693199912167
197  -0.372231898210252  15.6867339112651
198  -0.871464251846353  15.6409079429012
199  -1.34905573158097  15.5346028243627
200  -1.79455085483061  15.3727110176497
201  -2.20436348547166  15.1601898331285
202  -2.57750120913985  14.9023926608485
203  -2.91232914962159  14.6080029257073
204  -3.20609972260496   14.292075564441
205  -3.45677619070567  13.9752129491758
206  -3.66524553816928  13.6772526333322
207  -3.83633425415426  13.4091671422587
208  -3.97774273439935  13.1705180244754
209  -4.09732206170901  12.9544528297015
210  -4.20115009646975  12.7533390937665
211  -4.29327774561308  12.5610658524625
212  -4.37621968200096  12.3732329874123
213  -4.45149131809202   12.186743047736
214  -4.52000381636609  11.9993764823372
215  -4.58232420072858  11.8094712737468
216  -4.63884233071707  11.6156992894725
217   -4.6898799982305  11.4169122895392
218  -4.73576685607522  11.2120364503535
219   -4.7769005178555  11.0000026765649
220  -4.81380381063684  10.7797063037479
221  -4.84718939995042  10.5499938955605
222  -4.87803942617811  10.3096772799354
223  -4.90770411945089  10.0575762481066
224  -4.93801758227958  9.79259188674893
225  -4.97142065881358  9.51381283613363
226  -5.01107078763185  9.22065737955187
227  -5.06090899460487  8.91305514078735
228  -5.12564748416191  8.59167196847665
229  -5.21064018289029  8.25817781410742
230  -5.32160509181424  7.91554852261405
231  -5.46418298269486  7.56838136783636
232  -5.64334083178502  7.22319894654148
233  -5.86265085432319  6.88871972110588
234   -6.1234781471331  6.57605573919498
235  -6.42409529565874  6.29867006166972
236  -6.75881259831417  6.07163416569925
237  -7.11753569996039  5.90960183724033
238   -7.4865179225204  5.82375913949635
239  -7.85058787715186  5.81957350498128
240   -8.1958143258911  5.89720303682806
241  -8.51113972349105  6.05455023714532
242  -8.78869072999736  6.29260461738408
243  -9.02164243710447  6.62566234454094
244   -9.1835393679085  7.06504393555534
245  -9.23450865563092  7.62173486125514
246  -9.11965073153921  8.29045173701998
247  -8.91528965102363  8.90931027739804
248  -8.87984679713265  9.59882562022105
249  -8.76842554962322  10.2789989336596
250   -8.5244575100276  10.9183336270369
251  -8.21290356894023  11.5267615951871
252  -7.68696543274412  12.4785972784136
253   -7.2248635633123  13.4695993719567
254  -6.79382181899238  14.4865138476743
255  -6.24473496383657  15.4527555941101
256  -5.51424999599626   16.289472582752
257  -4.65467521114633  16.9923832644498
258  -3.70999771897267  17.5740806862373
259  -2.67941088766474  17.9761884387795
260  -1.60598694923422  18.2325978478635
