// Id               X                Y
  1  -0.0932114088931824    8.963154491174
  2     1.012395993581  8.88859403734277
  3   2.07667664051774  8.65820782484017
  4   3.06640320334744   8.2673261429897
  5   3.94301496690906  7.70180975507713
  6     4.706542747568  6.94028819995599
  7    5.3006153144273  6.15491789328407
  8   5.90664121865866  5.41293689774544
  9    6.5875648767134  4.75436137835672
 10   7.32218170193266  4.15120089483783
 11   8.02246538519746  3.48392392022304
 12   8.29192502434146  3.00801583690244
 13   8.38204503010995  2.46758432578648
 14   8.20308993859329  1.95502819108808
 15   7.77377488539342  1.64970205361161
 16   7.23914886475111  1.66482910394837
 17   6.92673348171145  1.80448496226921
 18   6.71541442143141  1.96208853055431
 19   6.61011918044547  2.06377524185563
 20    6.5284628897785  2.15571941603286
 21   6.45816959177251  2.24562673885521
 22   6.39560513320158  2.33522361960028
 23   6.33896425633431  2.42543494918285
 24   6.28674091631097  2.51709263037002
 25   6.23797242479447  2.61133049142697
 26   6.19165585768661   2.7092197876131
 27   6.14723178280372  2.81196596707438
 28   6.10412309584427  2.92064088586721
 29    6.0619771972152  3.03630200012246
 30   6.02042332233944  3.15995463682113
 31   5.97909522533671  3.29265032259777
 32    5.9375279563749   3.4355428948179
 33   5.89510731145316  3.58995649424204
 34   5.85100427274563  3.75737797418842
 35     5.804155876801  3.93918469285137
 36   5.75335149732372  4.13585045299414
 37   5.69736703550825  4.34614807067183
 38   5.63494605909155  4.56754282354736
 39   5.56473134993411  4.79721187534194
 40   5.48532244696334  5.03254345067144
 41   5.39540137502623  5.27118216611427
 42   5.29384754187109  5.51095708522528
 43   5.17981768447663  5.74982540748097
 44   5.05278980412984  5.98585424714509
 45   4.91257485976732  6.21723257004338
 46   4.75930084195826  6.44230021889435
 47    4.5933745714752  6.65958208858434
 48   4.41542750334331  6.86781810557217
 49   4.22625261628443  7.06598258913579
 50   4.02673975565266  7.25328952422704
 51   3.81781629772106  7.42918309967903
 52   3.60039858222026  7.59331535898191
 53   3.37535733115364  7.74551467701196
 54   3.14349766431573  7.88574970482964
 55   2.90555198017076  8.01409327781899
 56   2.66218246670643  8.13068974022046
 57   2.41398955913416  8.23572765514132
 58   2.16152308154641  8.32941844950236
 59    1.9052936872608  8.41198052470282
 60    1.6457831566762  8.48362783690893
 61    1.3834528864592  8.54456182705461
 62   1.11875043386665  8.59496570433517
 63  0.852114287561533  8.63500031755561
 64  0.583977180279602  8.66480109224223
 65   0.31476829764608  8.68447571904351
 66  0.044914716443731  8.69410243285119
 67  -0.225157643491963  8.69372882206431
 68  -0.49502332442534  8.68337116192493
 69  -0.764256708262362  8.66301428721988
 70  -1.03243130604512  8.63261202194085
 71  -1.29911879845558  8.59208818144754
 72  -1.56388764311601  8.54133817092681
 73   -1.8263010263318  8.48023123640401
 74  -2.08591389716826   8.4086134936175
 75  -2.34226879921742  8.32631197498038
 76  -2.59489023619525  8.23314009839329
 77  -2.84327740767074   8.1289051636426
 78  -3.08689537750004  8.01341868927951
 79  -3.32516514020518   7.8865105473588
 80  -3.55745366044508   7.7480478271595
 81  -3.78306574572633  7.59795902883122
 82  -4.00124042410774  7.43626344751434
 83  -4.21115504863646  7.26310446625469
 84  -4.41194027494014  7.07878413535388
 85  -4.60270808961042  6.88379526927989
 86  -4.78259322465132  6.67884678472597
 87  -4.95080594298708  6.46487842999606
 88  -5.10669188006851    6.243062442991
 89  -5.24979287172355  6.01479182698787
 90  -5.37990174694299  5.78165757655678
 91  -5.49710392293791  5.54542007495194
 92  -5.60179913418037  5.30798278982931
 93  -5.69469747956552  5.07137891018196
 94  -5.77678496153485  4.83778238329512
 95  -5.84925533285114  4.60954891130353
 96  -5.91341104563353  4.38926181117412
 97  -5.97055796948499  4.17965639395888
 98  -6.02196089709628  3.98313531560708
 99  -6.06889245459675  3.80086413663724
100  -6.11262103208085  3.63243682739863
101   -6.1542735316422  3.47657102122102
102  -6.19475242026905  3.33182760876517
103   -6.2347558713612  3.19687841368517
104  -6.27483954858089  3.07052188684803
105  -6.31548516443279  2.95162532880532
106  -6.35716963247254  2.83905746973334
107  -6.40043722304657  2.73163014594932
108  -6.44597610746106  2.62806146700757
109  -6.49469364235676  2.52698228161993
110  -6.54777722645231  2.42701084344285
111  -6.60674833426227  2.32686950641701
112  -6.67367538921763  2.22530419292442
113  -6.75240854348676  2.11992598875972
114  -6.85720308651524  1.99952388095395
115  -7.05830636822158  1.81871333331818
116  -7.35570828744723  1.64724222258714
117  -7.88890205652357  1.56866974668638
118  -8.35100869611773  1.81670559491153
119  -8.58728687577427   2.3003083084338
120  -8.55071555135582  2.84297366047077
121  -8.31718617002372  3.33510676324205
122  -7.63749828014154  4.03173960018251
123  -6.90550654975938  4.64451558509813
124  -6.21781906397543  5.30436072197981
125  -5.59942641129045  6.05607935831635
126  -4.97710734365762    6.907241744187
127  -4.23212525436006  7.62781551656962
128   -3.3180651251177  8.20462681616326
129  -2.29788613317242  8.62301077672171
130   -1.2009514212254  8.82438957201355
131  -0.222105233914936  9.53057205205496
132   0.88327561060532  9.45821977797174
133   1.97198405279757   9.2345840408537
134   3.01883559471071  8.85295178003405
135    3.9825813898228  8.29055593850989
136   4.81088922537857  7.54281487304255
137   5.55144981523933   6.7135501865604
138   6.28615220431375  5.88672106014008
139   7.07550875800164  5.11510527612301
140   7.89146625344345  4.37103724123618
141   8.58929507821268   3.5122912777675
142   8.83188467068198  2.84864715798408
143   8.82296485969189  2.14380914580103
144   8.51903786830574  1.51184009515651
145   8.05246860815859  0.99653229847981
146   8.13766805576574 0.280334252754621
147    8.0260188932375 0.00596288606786214
148   7.84297222843631 -0.211191288944816
149   7.61718385895864 -0.383335226043088
150    7.3723840426382 -0.515331810132799
151   7.11666683742385 -0.609424647195945
152   6.85515700276291 -0.666416566978001
153   6.59217513205587 -0.68699749420809
154   6.33167279398917 -0.672645269229247
155   6.07710796345708 -0.625834233617198
156   5.83127855528187 -0.549708342559199
157    5.5963097891669  -0.4476210067186
158     5.373752578736 -0.32281326264238
159    5.1647130051587 -0.178269040270078
160   4.96996953987145 -0.0166846367324113
161   4.79006459210548 0.159506395906395
162   4.62537052780222   0.3480876678993
163   4.47613325223732 0.547009643730689
164   4.34247344673866  0.75433741102858
165   4.22425916941109 0.968194631271912
166   4.12073028970654  1.18672720903023
167   4.03013075815428  1.40816301227439
168   3.94996293667953   1.6309590405658
169    3.8775768981582  1.85387284349367
170   3.81046752764548  2.07592181222202
171   3.74631059908692  2.29631181574489
172   3.68293284133355  2.51437632264907
173   3.61829397775801  2.72952888910653
174   3.55049187072241  2.94122480837264
175   3.47778440763377  3.14893002057062
176    3.3986199874821   3.3520977711123
177   3.31166974779827  3.55015439940039
178   3.21585592101711  3.74249525871616
179    3.1103716395801  3.92849055148539
180   2.99468852862715  4.10749925653036
181   2.86854996470141  4.27888782846254
182   2.73195006881831  4.44204951706291
183   2.58510099831999  4.59642041828501
184    2.4283931596863  4.74148975852131
185   2.26235382473691  4.87680391830173
186   2.08760900720644   5.0019654920046
187   1.90485172516979  5.11662959251698
188   1.71481772645997  5.22049949698726
189   1.51826811686464  5.31332293164733
190   1.31597745643702  5.39488933518906
191   1.10872573741095   5.4650277360236
192  0.897292964928489  5.52360460456457
193  0.682455529598548  5.57052115864289
194  0.464983967353569  5.60570994823113
195  0.245641939856975  5.62913093853996
196  0.0251863294807768  5.64076760162148
197  -0.19563172064731  5.64062363857702
198  -0.416065104543506  5.62872087855762
199  -0.635368769148994  5.60509867814804
200  -0.852797865077307  5.56981484394512
201  -1.06760641233574  5.52294780009705
202  -1.27904676390943  5.46459949661262
203  -1.48637003320172  5.39489846586357
204  -1.68882757481867  5.31400252014579
205  -1.88567363872544  5.22210083583548
206  -2.07616950537912  5.11941552627084
207  -2.25958975654955     5.00620314516
208  -2.43523176783902  4.88275672821175
209  -2.60242985541011  4.74940882810043
210  -2.76057552655248  4.60653546506531
211  -2.90914472478959   4.4545600996219
212  -3.04773171228428  4.29395593096663
213  -3.17608747077864  4.12524446911391
214  -3.29415874875338  3.94898879437071
215  -3.40212284065708  3.76578125191232
216  -3.50041337525533  3.57622712250376
217  -3.58973382980292  3.38092736746672
218  -3.67105767814405  3.18046427313272
219  -3.74561634075257  2.97539352909696
220  -3.81487795230479  2.76624519885621
221  -3.88052130673028   2.5535346438877
222  -3.94441040722442  2.33778324959644
223  -4.00857608498092  2.11954825444262
224  -4.07521170562288  1.89946154129429
225  -4.14668680182364  1.67827905129133
226  -4.22556349702376   1.4569438319897
227  -4.31453797046353  1.23665805162591
228   -4.4161375433009  1.01892509178285
229  -4.53217884960561 0.805491583928349
230  -4.66354524775869 0.598221871680127
231  -4.81051589145756 0.399045807085165
232  -4.97311187059155  0.20999518492016
233  -5.15121954653944   0.0332645433349
234  -5.34458732158521 -0.128728076809839
235  -5.55277379348877 -0.273282660489626
236  -5.77506555852465 -0.397370185097078
237  -6.01036049162285 -0.497626499229307
238  -6.25701712813417 -0.570445895940051
239  -6.51270380429059 -0.612250312968321
240  -6.77433465838852 -0.619947502006683
241  -7.03817764511893 -0.591374220229378
242  -7.30002137636684 -0.525271882681427
243  -7.55488391900048 -0.420434880456144
244  -7.79472774015604 -0.274124037738108
245  -7.99811195329579 -0.0794066718720935
246  -8.13759319635279 0.179709058793842
247  -8.11788078784424 0.898443668775801
248  -8.64001138989956  1.35633843055142
249  -9.00668693566215  1.95302126054439
250  -9.07566574998224  2.65397883945008
251  -8.87673265236404  3.33225681724117
252  -8.21752829157469  4.22184357708281
253   -7.4125639202812  4.97949887584424
254  -6.62397169117924  5.75379282789591
255  -5.89584003727422  6.58796360208226
256  -5.19592816983638   7.4504284365518
257  -4.37143939541729  8.19471349612896
258  -3.42886051398835  8.77706422920856
259  -2.40505282747001  9.19306161404046
260  -1.32046155597291   9.3985980262955
