// Id               X                Y
  1  -0.109844692438697  6.32383092448391
  2  0.928950939144924  6.28778998452617
  3   1.86176241288373  6.16007372148188
  4   2.79251802814698  5.89517679531073
  5   3.64116425464415  5.50324369255168
  6   4.40523550626105  5.00233677170517
  7   5.06651782906104  4.38922823868479
  8   5.70794253196386  3.76517726653647
  9   6.40676005009891  3.19612046048397
 10   7.16038726611338  2.69358589003333
 11   7.91573890592258  2.18622897680713
 12    8.2881695055032  1.83923216743659
 13   8.58283378184562   1.4199517185489
 14   8.73016592546982 0.923165658902747
 15   8.64338345591018 0.412474511155857
 16   8.15120335446241 -0.044342859507546
 17   7.83599154629816 -0.111985466062237
 18   7.75571203239982 -0.112977596974126
 19   7.67294670015755 -0.107522466553031
 20   7.58172527679049 -0.0939075557342944
 21   7.48216218780129 -0.0699939673315331
 22   7.37845547947553 -0.0347753481684989
 23   7.27354509059515 0.0119987735785921
 24   7.16871789151681 0.0706740231899969
 25   7.06493234147375 0.141545775308739
 26   6.96332927581507 0.224574914933499
 27   6.86493091856504 0.319487549447277
 28   6.77043330519972 0.425983100820701
 29   6.68027816722577 0.543746164976839
 30   6.59475494838769  0.67233399751777
 31   6.51392541182269  0.81124799904669
 32   6.43744564616466 0.960295209404414
 33   6.36450545076098  1.11992806299325
 34    6.2937283000711  1.29175062231414
 35   6.21953331072008  1.48886153816481
 36    6.1421758685462  1.70887457863972
 37    6.0642472938099  1.93796179076388
 38   5.98335796374382  2.17427102476383
 39   5.89675557054098  2.41658359286061
 40   5.80189859711856  2.66303672170492
 41   5.69656423090406  2.91135970450064
 42   5.57893022390234  3.15915799136914
 43    5.4476447319362  3.40407447006512
 44   5.30185953830899   3.6438836996724
 45   5.14122256193565  3.87655550794974
 46   4.96583826616718  4.10029973476533
 47   4.77620837881879  4.31359475998624
 48   4.57316414914897  4.51520126537811
 49   4.35779832082988  4.70416340405057
 50   4.13140214726065  4.87979987318659
 51   3.89541069837115  5.04168738591345
 52   3.65135734827233  5.18963954253081
 53   3.40083365602878  5.32368533610683
 54   3.14544285931434  5.44405226042796
 55   2.88672779459606  5.55115643300959
 56   2.62606005272037  5.64559365802603
 57   2.36451224414864  5.72811366381791
 58   2.10278547331841  5.79955898913851
 59   1.84125802604836    5.860775258204
 60    1.5801182861302  5.91253214884174
 61   1.31946606914904  5.95548782360532
 62   1.05933154692093  5.99018881454372
 63  0.799664313093298  6.01707801891662
 64  0.540351047067286  6.03649816899816
 65  0.281261500281017  6.04869440349336
 66  0.0222876963606184  6.05382045906016
 67  -0.236647584438278  6.05194670908967
 68  -0.495609824821569  6.04306519336912
 69  -0.754679032224616   6.0270886155904
 70  -1.01396039367449   6.0038441501493
 71  -1.27356637814779  5.97306595519592
 72  -1.53357871790907  5.93438997619074
 73  -1.79401871521336  5.88735010537911
 74  -2.05484457840535  5.83137161629786
 75  -2.31594716650803  5.76576595092055
 76  -2.57708619601809  5.68974726567773
 77  -2.83776674974633  5.60248934993553
 78  -3.09714655872895  5.50320941584703
 79  -3.35405114718595  5.39124125613605
 80  -3.60707430001582  5.26607634556412
 81  -3.85469219125114  5.12738084330469
 82  -4.09534858871129  4.97500633758419
 83  -4.32751031850888  4.80900479124169
 84  -4.54970927072575  4.62964860061954
 85  -4.76058495264695  4.43745200207025
 86  -4.95893403603022  4.23318964100483
 87  -5.14376770700898  4.01790928796895
 88  -5.31437481455683  3.79293657085432
 89  -5.47038720644536  3.55986969869325
 90  -5.61184164648792  3.32056197184062
 91  -5.73922992697832  3.07708998229952
 92  -5.85352629075702  2.83170521309907
 93  -5.95618133653642  2.58676317017778
 94  -6.04907736784659  2.34461147027689
 95  -6.13445436122366  2.10739606490363
 96  -6.21482267586115  1.87678260453617
 97  -6.29272615132733   1.6541445197876
 98  -6.36932869919115  1.44403322916751
 99  -6.44055607759834  1.26204486381166
100  -6.51202616710953  1.09500870961531
101  -6.58626677460712 0.938690659427976
102  -6.66449041310661 0.792156153998788
103  -6.74743410645759 0.655327696701185
104  -6.83534890258684 0.528713284417452
105  -6.92815975200463 0.412938072389201
106  -7.02560692152362 0.308510653120689
107  -7.12714324026792 0.215939946269117
108  -7.23179967960753 0.135766839729172
109  -7.33836075961791 0.0683140945336121
110  -7.44567489725883 0.013515519506844
111  -7.55208525364161 -0.0287635274104794
112  -7.65406100816204 -0.0586070695488171
113  -7.74689711631171 -0.0769791264066473
114  -7.83045370468735 -0.0864360660632004
115   -7.9109786487876 -0.0891807819175829
116  -8.22919746066251 -0.0365826173417012
117  -8.74186223737817 0.397347671021234
118  -8.84662884809918 0.908570617766214
119  -8.70783787125789  1.41504996153368
120  -8.41278580135814   1.8452144100037
121  -8.03454927587621  2.20274553963711
122  -7.27006727649875  2.72450751220163
123   -6.5069878538516  3.24578251046223
124  -5.79562274327574  3.83496106884214
125  -5.13186823615357  4.47832993232328
126  -4.43873863166036  5.08762328013551
127  -3.66422667105167  5.56058204412525
128  -2.83009526797158  5.90239124784113
129   -1.9647171474382  6.13405244674615
130   -1.0373345343477  6.24649212289862
131  -0.0887321845425663  6.90763890715362
132  0.858207173652681  6.87234556304627
133   1.80780542150389  6.74579755363916
134   2.73953228755942  6.48823921864483
135   3.63781735027146  6.11112034698845
136   4.46500268715661  5.60889192667446
137   5.19399071632247  4.99251513580844
138   5.87397428152671  4.36071529767233
139   6.58230885074534  3.78733996986356
140   7.33243631783179  3.28389716009661
141   8.09380350630381  2.80573479286227
142   8.50929964938002  2.43531868093166
143   8.84988840518695   1.9912297589408
144   9.07296283467249   1.4604470707731
145   9.20028701490107 0.853685540088075
146   9.57433696274928 0.507943732608183
147   10.7013800351731 0.0863033858822479
148   10.7608083993675 -0.34043948829658
149   10.6595659112493  -0.7355390860121
150   10.4631311843909 -1.09088497467536
151   10.2072898042269 -1.40499842342286
152   9.91012670232159 -1.67797113662683
153    9.5822444713252 -1.90906692067078
154   9.23180033928669 -2.09715724686146
155   8.86573209537067 -2.24124668155774
156   8.49013736052026 -2.34069457715549
157   8.11069291726784 -2.39541270180089
158   7.73283042083054  -2.4059998488217
159   7.36162410749343 -2.37371231660734
160   7.00160627662357 -2.30031992926303
161   6.65672775008064 -2.18797865364073
162   6.33049121610105 -2.03923426063957
163   6.02606261772915 -1.85717587812315
164   5.74642672305503 -1.64586701149453
165   5.49922671210153 -1.41605186791279
166   5.28320385267253 -1.17469855321325
167    5.0907687082215 -0.921136018886164
168   4.91942869034598 -0.659963811018852
169   4.76622859130947 -0.396372170510759
170   4.62747467924844 -0.134856205863205
171   4.49921305970638 0.121086343882662
172   4.37763915466066 0.368902095261418
173   4.25933972595144  0.60682230075162
174   4.14141173226011 0.833684580532916
175   4.02149983352517  1.04877497503641
176   3.89777987921312  1.25170519389061
177   3.76890699826103  1.44232635636578
178   3.63394234439319  1.62067370754552
179   3.49226916492385  1.78693437143219
180   3.34350534165796  1.94142989461916
181   3.18741649154545  2.08460490490144
182   3.02383327898416  2.21701110375563
183   2.85258151853003  2.33927236220834
184    2.6734445610859  2.45201548995939
185   2.48618770791067   2.5557599044814
186   2.29066526521113  2.65078680785873
187    2.0869812077416  2.73705137613307
188    1.8756038118955  2.81422151180014
189   1.65733551406075  2.88186505224364
190   1.43316335110182  2.93968729940612
191   1.20411865310401  2.98767984983002
192  0.971214257828404  3.02612874957456
193  0.735418638965111  3.05552361622413
194  0.497618208699113  3.07642983286345
195  0.258574922039011  3.08936659840218
196  0.0189142098930405  3.09471308482442
197  -0.220839207761262  3.09265041018286
198  -0.46018921458902  3.08313854872121
199  -0.698587727311913  3.06592564640754
200  -0.935375506396443  3.04059001353054
201  -1.16976478847234  3.00661640726171
202  -1.40086234023875  2.96350331689343
203  -1.62770748260797  2.91088623529223
204  -1.84930258690153  2.84864466877054
205  -2.06465591736426   2.7769411188899
206  -2.27288405676126  2.69613997694766
207  -2.47335995345468  2.60661236614589
208  -2.66580141681189   2.5085275089529
209   -2.8502233579173  2.40175038711598
210  -3.02679966221973  2.28587552530567
211  -3.19573575912978  2.16033756109941
212  -3.35720957617592  2.02452686272374
213  -3.51138003514162  1.87787299395478
214  -3.65843778063968  1.71989203140557
215  -3.79867579940374  1.55020935176959
216  -3.93256822157806   1.3685719689052
217  -4.06085284598869  1.17486177523749
218  -4.18461463193363 0.969118292949616
219  -4.30536535071228 0.751578564699354
220  -4.42511110019932  0.52274199708417
221  -4.54639571371235 0.283467415051661
222  -4.67230395300391 0.0351059182265843
223  -4.80640200282392 -0.220336212859642
224  -4.95258227486204 -0.480028185729687
225   -5.1147695093549 -0.740193959013464
226  -5.29648132870776 -0.996167892908642
227  -5.50056085436417 -1.24300126729246
228  -5.73062471691974 -1.47746587282495
229  -5.99494843195842 -1.69967178870306
230  -6.28663278676082 -1.89703972261163
231  -6.60200836258009  -2.0637749688312
232  -6.93817605318864  -2.1962526523714
233  -7.29191316353413 -2.29154700748587
234  -7.65959734569624  -2.3471848183068
235  -8.03701617325053 -2.36105238365427
236  -8.41931103496359 -2.33148002253764
237  -8.80113766129652 -2.25738887863272
238  -9.17678639853136 -2.13832798801144
239  -9.54000177102359 -1.97433480295587
240  -9.88354954572555 -1.76572292577009
241  -10.1988612677752 -1.51284885031203
242  -10.4748791479796 -1.21554359632705
243  -10.6931332130319 -0.872489939215387
244  -10.8176201240141 -0.483141533196972
245  -10.7825045430566 -0.0517772906924055
246  -9.67569561238089 0.438281941332991
247  -9.32094236023554 0.806166930343087
248   -9.2098448404016  1.42079418672466
249  -8.99169465491082  1.96719458887715
250  -8.64896896841045  2.42367023868635
251  -8.22210071403238  2.80941609533126
252  -7.46720959168045  3.30587691735828
253  -6.71987133281624  3.82338762802555
254  -6.01465309059729  4.41085512563254
255  -5.33822427160948  5.05314498853842
256  -4.60823850455621  5.65366589819549
257   -3.7898687928589  6.13691738278356
258   -2.9044822744181  6.48880528072798
259  -1.97742658593045  6.72115432403435
260  -1.03177742368482  6.83696244051582
