// Id               X                Y
  1  -0.0758394280972543 0.139162571510276
  2  0.958473439473777 0.157727052368668
  3   1.92041476053663 0.199516416714847
  4   2.96061231913979 0.274382932635591
  5   3.89376408903979 0.370773529618119
  6    4.7980341446733 0.626155564938503
  7   5.62354501062107  1.08194103552439
  8   6.37319349769125  1.65768821241271
  9   7.14087384814068  2.19547441965378
 10   8.03215166149247  2.45640329226555
 11   8.88267345992265  2.10120118992211
 12   9.09598148161463   1.6239214790891
 13   9.02916935638667   1.1058349814001
 14   8.72217616174345 0.679111856734958
 15   8.26786172399582 0.405529245566846
 16   7.61415101826012 0.270558633505526
 17   6.68697084200388 0.258321866472359
 18   6.62651343639745 0.256824235026656
 19   6.58957889121535 0.255863905817599
 20   6.54396536209944 0.254637773058214
 21   6.48544383938587 0.252991294178497
 22   6.41376828979157 0.250868086306592
 23   6.32940429834199 0.248213656589044
 24   6.23315744503816 0.244971514724957
 25   6.12610520408336 0.241080056047544
 26   6.00952916390123 0.236473507873791
 27     5.884824210457 0.231084520227251
 28   5.75339882892981  0.22484893167328
 29   5.61658485810682 0.217711775424056
 30    5.4755709853595 0.209633156260968
 31   5.33136639192718 0.200592812048607
 32   5.18479259987543 0.190592778450361
 33   5.03649586203828 0.179658154944704
 34   4.88697074750977 0.167836294388944
 35   4.73658709797234 0.155194825259601
 36   4.58561540996862 0.141818882915083
 37   4.43424839883556  0.12780786548131
 38   4.28261833731447 0.113271976645788
 39    4.1308107099682 0.0983287724478123
 40   3.97887503733631 0.0830998838316684
 41   3.82683368145131 0.0677080372857641
 42   3.67468925427282 0.0522744447737662
 43    3.5224310351302 0.0369165872961771
 44   3.37004061961139 0.0217463795236769
 45   3.21749688746796 0.00686867930967833
 46   3.06478028817434 -0.00761990409121249
 47   2.91187639053199 -0.021631947501768
 48   2.75877861863054 -0.0350899311342203
 49   2.60549009524406 -0.0479267549223569
 50   2.45202453278038 -0.0600860572606915
 51   2.29840614961142 -0.0715223263724241
 52   2.14466864326522 -0.0822007867993984
 53   1.99085331618924 -0.0920970429840724
 54    1.8370065161847 -0.101196469007864
 55   1.68317661169923 -0.109493347156642
 56   1.52941076158576 -0.116989775623181
 57   1.37575175208242 -0.123694383976845
 58   1.22223515789599 -0.129620910585328
 59   1.06888704228007 -0.134786706241233
 60  0.915722350501102 -0.139211231440696
 61  0.762744082210655 -0.142914611230153
 62  0.609943260996622 -0.145916302731307
 63  0.457299661468924 -0.148233918591189
 64  0.304783209902021 -0.149882237040132
 65  0.152355944479241 -0.150872417940882
 66  -2.55963455739381e-05 -0.151211435432084
 67  -0.152407697331627 -0.150901731957856
 68  -0.304836644853126 -0.149941095350941
 69  -0.457355904033476 -0.14832275936456
 70  -0.610003438460727 -0.146035727453241
 71  -0.762809315675875 -0.143065318394476
 72  -0.915793738634956 -0.139393929334942
 73  -1.06896563503884 -0.135002006179041
 74  -1.22232191911846 -0.129869202599922
 75  -1.37584751074415 -0.123975697754495
 76   -1.5295161526491 -0.117303630241555
 77  -1.68329200883924 -0.109838593893255
 78  -1.83713196009716 -0.101571131982539
 79  -1.99098844352611 -0.0924981625994206
 80  -2.14481262229958 -0.0826242707956065
 81   -2.2985576293265 -0.071962812837521
 82   -2.4521816120778 -0.060536793231257
 83  -2.60565031832765 -0.0483794934314736
 84  -2.75893900138228 -0.0355348489041849
 85   -2.9120334809566 -0.0220575851211181
 86  -3.06493026186029 -0.00801313059468305
 87  -3.21763567657321 0.00652267496308505
 88  -3.37016407112546 0.0214640665330304
 89  -3.52253509099131 0.0367160357209063
 90   -3.6747701421545 0.0521752263617249
 91  -3.82688810050221  0.06773107649156
 92  -3.97890031782922 0.0832672500819783
 93  -4.13080491999457 0.0986634044841951
 94  -4.28258030426167 0.113797330660364
 95  -4.43417761019583 0.128547480991778
 96  -4.58551175989838 0.142795863946144
 97  -4.73645045684211 0.156431239184101
 98  -4.88680035588616 0.169352496262271
 99  -5.03628959172559 0.181472050838582
100  -5.18454618266704 0.192719047089194
101  -5.33107278265398 0.203042110958124
102  -5.47522007612973 0.212411349082004
103  -5.61616375663384 0.220819234247069
104  -5.75289281834931 0.228279993522492
105  -5.88421832573429 0.234827204782023
106  -6.00881013777307 0.240509618314938
107  -6.12526350078857 0.245385763876375
108  -6.23218929525315 0.249518456118677
109  -6.32831394327667 0.252970460016347
110  -6.41257074179238 0.255802063766113
111  -6.48416822144305 0.258070434169152
112  -6.54265632308083 0.259830667061588
113  -6.58827611433166    0.261145306485
114  -6.62527505706383 0.262173290502558
115  -6.68596207230812  0.26378379999347
116  -7.61177107308728 0.276820539268038
117  -8.26591250786572 0.410284858301978
118  -8.72194876768766  0.68127642093752
119  -9.03284846022063  1.10517013418809
120   -9.1058332547321  1.62243213277947
121  -8.89879807601532  2.10242503358197
122  -8.05288716715051  2.46781664277821
123  -7.15953557783868  2.21291332677553
124  -6.38969609590885  1.67562128897418
125   -5.6377725540415  1.09545115853798
126  -4.80897542226279  0.63329473899699
127  -3.90056175742579 0.372858461885649
128  -2.96226842063469 0.273874340492932
129  -2.02438403271585 0.205637267402903
130  -1.04217313419814 0.134123914422835
131  -0.019076715631884 0.730135309628424
132  0.919182299681567 0.762850149975724
133   1.85932069055146 0.800791395379036
134   2.79689919464169 0.857501371856571
135   3.73537056132517  0.95811978809691
136   4.64315218494914   1.2154358992223
137   5.47411745358263  1.67665725589048
138   6.30579465620502  2.27027841703118
139    7.2272276147683   2.8044433024759
140   8.28735061478338  2.99608272523512
141   9.23162735699217  2.47467954479189
142   9.57627611714993  1.92109427524562
143   9.61154012870916  1.26675079094116
144   9.36825337932668 0.656072235207742
145   8.92789298941885 0.178002654289084
146   9.44172975857738 -0.238308728427821
147   9.55806450720921 -0.462881167886427
148   9.46989007760096 -0.72925423275914
149   9.34228866406929 -0.980154591141674
150    9.1846272904129 -1.20991677490066
151   9.00335205145594 -1.41602453568421
152   8.80415384261042 -1.59765317280542
153   8.59227262390816 -1.75535813991123
154   8.37228542735539 -1.89077884519695
155   8.14793438074497 -2.00628822479151
156   7.92207526575967 -2.10464032743286
157   7.69673215802141 -2.18866600673625
158   7.47322059641477 -2.26104472832279
159    7.2523004813744  -2.3241593500474
160   7.03432800222031 -2.38002609536299
161   6.81938712143922 -2.43028348299631
162   6.60739195142407 -2.47622048943299
163   6.39815972196115 -2.51882504510183
164   6.19145903736634 -2.55883812714648
165   5.98703992650188 -2.59680432267409
166   5.78465176976869 -2.63311478616461
167   5.58405373157973 -2.66804190047351
168   5.38502073730539 -2.70176663626624
169   5.18734676921676 -2.73440011147519
170   4.99084642854689 -2.76600075055951
171   4.79535525208669 -2.79658812719251
172   4.60072905986291 -2.82615424949905
173   4.40684253581592 -2.85467279297623
174   4.21358723034385 -2.88210661462339
175   4.02086917920669 -2.90841377712929
176   3.82860633774656 -2.93355225284785
177   3.63672602573396 -2.95748344577462
178   3.44516256488604  -2.9801746538382
179   3.25385526807089 -3.00160058694449
180    3.0627469062452 -3.02174405533803
181   2.87178273637941 -3.04059594671335
182   2.68091012236467 -3.05815461809863
183   2.49007872464037 -3.07442483810291
184   2.29924117878343 -3.08941642385747
185   2.10835413576568 -3.10314272129016
186   1.91737950404927 -3.11561907367302
187   1.72628572102935 -3.12686140917785
188   1.53504888981096 -3.13688505295299
189    1.3436536441238 -3.14570383484594
190   1.15209364334874 -3.15332952424858
191  0.960371643704236 -3.15977158367179
192  0.768499133658288 -3.16503719759154
193  0.576495556586783 -3.16913150683247
194  0.384387169179124 -3.17205796361846
195  0.192205600098311 -3.17381871901855
196  -1.38183555191979e-05 -3.17441496198883
197  -0.192233869824668 -3.17384714568374
198  -0.384417348648294 -3.17211505978174
199  -0.576528954112434 -3.16921773463494
200  -0.768537108534048 -3.16515319146976
201  -0.960415623156021 -3.15991807999957
202  -1.15214513614977  -3.1535072680207
203  -1.34371424999709 -3.14591346422032
204    -1.535120303695 -3.13712696311359
205  -1.72636973112732 -3.12713559783795
206  -1.91747798229933 -3.11592497156795
207  -2.10846901896679 -3.10347901213289
208  -2.29937443813256 -3.08978085934509
209  -2.49023232096734 -3.07481405455243
210  -2.68108594400333 -3.05856396205859
211   -2.8719825165109 -3.04101931738766
212  -3.06297211679353 -3.02217377186471
213    -3.254106987892 -3.00202728854934
214  -3.44544132108544 -2.98058724071155
215  -3.63703160846073 -2.95786906828475
216  -3.82893759071432  -2.9338963564471
217  -4.02122377047217 -2.90870020999582
218  -4.21396141055901 -2.88231780457906
219  -4.40723089431496 -2.85478999927906
220  -4.60112429261333 -2.82615789337431
221  -4.79574795970632 -2.79645820199606
222  -4.99122496705841 -2.76571730781543
223   -5.1876971804364 -2.73394381236367
224  -5.38532678872967 -2.70111934947583
225  -5.58429709580192 -2.66718731737716
226   -5.7848123688905 -2.63203901481139
227  -5.98709645577163 -2.59549641635742
228  -6.19138966324478 -2.55729050610787
229  -6.39794292384525 -2.51703378691404
230  -6.60700744775398  -2.4741854989361
231  -6.81881679919765 -2.42800860390554
232  -7.03355676770709 -2.37751927629344
233  -7.25131698249325 -2.32143299252514
234  -7.47201783244592 -2.25811628117303
235  -7.69530806679554 -2.18555872056516
236  -7.92043341818778 -2.10138391761934
237  -8.14608490455468 -2.00291915907039
238  -8.37024628868591 -1.88734016555188
239  -8.59007151196092 -1.75189899294726
240  -8.80183104241329  -1.5942281303544
241  -9.00096431387842 -1.41269195964929
242  -9.18225051847642 -1.20673324919381
243   -9.3400129025371 -0.977159321025263
244  -9.46781681104657 -0.726473299790973
245  -9.55626449426847 -0.460348292891134
246  -9.43885043999274 -0.236651311906226
247  -8.92487046567855 0.179550430190312
248  -9.36840872292293  0.65370519591041
249  -9.61811535330588  1.26143436634637
250  -9.58929710345248  1.91574808630099
251  -9.25142138172204  2.47325742932959
252  -8.31298905332532  3.00505746827393
253  -7.25133537543811  2.82117879745949
254  -6.32837239112451   2.2890922699056
255  -5.50047409079214  1.69349656036427
256  -4.67396969698461  1.22768411414127
257  -3.76948796461116 0.965779660229495
258  -2.83349253555494 0.868941052203726
259  -1.89444915757535 0.800378011799618
260  -0.956735515834584 0.722546848782909
