// Id               X                Y
  1  -0.619976778054598  17.5608820924155
  2  0.441439835628505   17.509960777316
  3   1.50192337888223  17.3159384597506
  4   2.51212559909314  16.9274352196514
  5   3.41688712672878  16.3619657505784
  6   4.16622561964177  15.6951567032535
  7   4.77355502799271  14.8962025666326
  8   5.26968542194536  14.0834980759474
  9   5.81546831161334  13.3170480620262
 10   6.43090586660324   12.606987303341
 11   7.05385071466269  11.9013295931233
 12   7.34655736440271  11.4449445885566
 13   7.53526410349872  10.9371238463428
 14   7.54130172348587  10.3935344736899
 15   7.29590395022606   9.9163902596085
 16   6.65111002108264  9.64222216885906
 17   6.42300265975553  9.66503052414082
 18   6.24842986899395  9.72200485068233
 19   6.08432381083624  9.81031844466669
 20   5.93572780065082  9.92663846541499
 21   5.80343806064223  10.0676201809356
 22   5.68352222268407  10.2401198384042
 23   5.58504983957734   10.430500388842
 24   5.50729463225515   10.633401659604
 25   5.44764398107344  10.8448424764591
 26    5.4029329150238  11.0620540587823
 27   5.36971215565152  11.2831617781654
 28   5.34460581406174   11.506969611755
 29   5.32442517365236  11.7327305869661
 30   5.30626398405979  11.9599654427829
 31    5.2875260972918  12.1883218310893
 32   5.26593754114933  12.4174764740148
 33    5.2395416111821  12.6470730085129
 34   5.20668864378101  12.8766887489505
 35   5.16602152176222  13.1058230787564
 36   5.11645890846197   13.333901150251
 37   5.05717630379871  13.5602874469205
 38   4.98758518397652  13.7843048246191
 39   4.90731041877214  14.0052556109512
 40   4.81616639870611  14.2224422562042
 41   4.71413245507455  14.4351858299137
 42   4.60132825940429   14.642841345444
 43   4.47798989511737  14.8448094520316
 44   4.34444722692938  15.0405444598249
 45   4.20110307210753  15.2295589627197
 46   4.04841452991364  15.4114255102042
 47   3.88687667354764  15.5857758716783
 48   3.71700866946121  15.7522984565015
 49   3.53934227214313  15.9107344218397
 50   3.35441255312702  16.0608729375904
 51    3.1627506616724  16.2025459992028
 52   2.96487837918006  16.3356230970827
 53   2.76130421603884  16.4600059736885
 54   2.55252080346761   16.575623631227
 55   2.33900334899357  16.6824276962557
 56   2.12120894781036  16.7803882027709
 57   1.89957656945174   16.869489821571
 58   1.67452756703086  16.9497285392888
 59   1.44646658274769  17.0211087737241
 60   1.21578274732964  17.0836409013395
 61  0.982851092051274  17.1373391665809
 62  0.748034109906923  17.1822199399012
 63   0.51168341754474  17.2183002911346
 64  0.274141481974864  17.2455968464978
 65  0.0357433861198227  17.2641249005075
 66  -0.203181384756081  17.2738977581054
 67   -0.4423071475987  17.2749262870001
 68  -0.681310224544587  17.2672186654423
 69  -0.919867148923895  17.2507803161676
 70  -1.15765287749862  17.2256140229313
 71  -1.39433901219622  17.1917202317799
 72  -1.62959203606921  17.1490975448458
 73  -1.86307157114165  17.0977434198686
 74   -2.0944286702702  17.0376550937041
 75  -2.32330416127048  16.9688307525995
 76  -2.54932706949916  16.8912709757615
 77  -2.77211315504167  16.8049804814465
 78  -2.99126361286906  16.7099702060719
 79  -3.20636399904208  16.6062597461926
 80  -3.41698346346907  16.4938801899404
 81   -3.6226743899689  16.3728773578331
 82   -3.8229725673152  16.2433154616177
 83   -4.0173980399977  16.1052811726924
 84  -4.20545681347907  15.9588880671176
 85  -4.38664361380067  15.8042813807371
 86  -4.56044592264549  15.6416429641388
 87  -4.72634952267216  15.4711962724351
 88  -4.88384578970205  15.2932111596324
 89  -5.03244095351147  15.1080081740639
 90  -5.17166751316704  14.9159619748442
 91  -5.30109793259307  14.7175034176012
 92  -5.42036065566858  14.5131198024543
 93  -5.52915836865824  14.3033527535884
 94  -5.62728830617088  14.0887932262555
 95  -5.71466425526955   13.870073234042
 96  -5.79133977694065  13.6478540772206
 97  -5.85753205646625   13.422811149917
 98  -5.91364573870533   13.195615822479
 99  -5.96029612211978  12.9669154414751
100  -5.99833118512018  12.7373131609657
101  -6.02885208257474  12.5073501057453
102  -6.05323191955242  12.2774932548724
103  -6.07313266331231  12.0481333992535
104  -6.09051979307675  11.8195985296909
105  -6.10767341378039  11.5921889637253
106  -6.12719267746825   11.366241222614
107  -6.15198699449247   11.142227704512
108  -6.18524223445905  10.9208977668037
109  -6.23034272658529  10.7034615908252
110  -6.29072079102736  10.4918092849404
111  -6.36959563617332  10.2887429456628
112    -6.469544273531  10.0981915560389
113  -6.59168736474362  9.92549439916865
114  -6.72567419219459  9.78513023653513
115   -6.8729487340823  9.67225073223859
116  -7.07751422718304  9.56906293542825
117  -7.77963539047124   9.5594765531238
118  -8.18082152377078  9.89372555617855
119  -8.35296779207508  10.3903836416579
120  -8.30259338107265   10.914166836109
121  -8.09743097897918  11.4007202822645
122  -7.52534041206905  12.1371697902952
123  -6.89831262923772  12.8297182342464
124  -6.32374645571934  13.5634518243238
125  -5.82463384845931  14.3552588306539
126   -5.3261267635368  15.1731435060147
127  -4.62198798351342  15.9903271483442
128  -3.74912437983633  16.6449258830313
129  -2.76790391952655  17.1049509505536
130  -1.70339723557072  17.3650695911065
131  -0.728418241459327    18.12590699376
132  0.367605932526785  18.0874977329265
133   1.44951055001242  17.8929259478931
134   2.48351385009396  17.5112034123974
135   3.44292828669584  16.9647075463286
136   4.30625521161728   16.277193668057
137   5.02638299585669  15.4438405075083
138   5.66191176357673   14.549501160424
139   6.30819273855294  13.6672721492224
140   7.00109258365731  12.8221725119455
141   7.71143572420567   11.990240165446
142   7.95585131307901   11.537168099868
143   8.09678148601515  11.0434341706254
144   8.09513109823328  10.5300853329455
145   8.00919212100462  10.0217564100383
146   8.49687314994267  9.77564640057258
147   9.37126181524593  9.26600870674734
148   9.13513486000093  8.87241923608607
149   8.80869648666558  8.53863344928553
150   8.43628992401832  8.25765106905931
151   8.02354197116121   8.0401307814222
152   7.57357123671263  7.89973223135098
153   7.10947820631931   7.8364532524466
154    6.6478046128209   7.8486762621674
155   6.20285242750912  7.93159777128137
156   5.78635198843272  8.07682670547952
157   5.40661494476212  8.27351432751073
158   5.06824215255082  8.50975458056479
159   4.77238846502437  8.77385615744598
160   4.51741364585736  9.05528711568592
161   4.29970502671459  9.34522008894861
162   4.11448755246459  9.63671486828119
163   3.95650391378776  9.92463543298105
164   3.82051670365568  10.2054111408021
165   3.70163503086035  10.4767342464069
166   3.59549537824956  10.7372569105535
167   3.49833530716862  10.9863230768004
168   3.40699625209083  11.2237496963685
169   3.31888436876214  11.4496586237304
170   3.23191019643851  11.6643536111489
171   3.14442075526321  11.8682341510986
172   3.05513228275883  12.0617376765214
173   2.96306807327671  12.2453025851089
174   2.86750348881945  12.4193459482321
175     2.767918771687  12.5842511914056
176   2.66395947485351  12.7403623006097
177   2.55540389047809  12.8879821451765
178   2.44213664386426  13.0273733019661
179   2.32412754049055   13.158760337262
180   2.20141476059483  13.2823328891127
181   2.07409156246516   13.398249138312
182   1.94229576134578  13.5066394052393
183   1.80620137561557  13.6076096999082
184   1.66601195698858  13.7012451105396
185   1.52195523278446  13.7876129574179
186   1.37427877829749  13.8667656707896
187   1.22324650482246  13.9387433763022
188   1.06913579719607  14.0035761893773
189  0.912235168803431  14.0612862313553
190  0.752842326706198  14.1118893862004
191  0.591262558498748  14.1553968183364
192  0.427807367955555  14.1918162712105
193  0.262793299684404  14.2211531636322
194  0.0965409043637491  14.2434114977139
195  -0.0706261941063351   14.258594588952
196  -0.238382160037407  14.2667056259907
197  -0.406399759884575  14.2677480651087
198  -0.574351147617169   14.261725862483
199  -0.741908637122742  14.2486435457751
200  -0.908745475537854  14.2285061253951
201  -1.07453663135112  14.2013188447289
202  -1.23895961272762  14.1670867674634
203  -1.40169533474753  14.1258141986913
204  -1.56242905911665  14.0775039345942
205  -1.72085143637057  14.0221563331143
206  -1.87665968864179  13.9597681951851
207  -2.02955898069388  13.8903314429884
208  -2.17926403821891  13.8138315787095
209  -2.32550108556899  13.7302459049707
210  -2.46801019072841  13.6395414873846
211  -2.60654812463419  13.5416728416032
212  -2.74089186709374  13.4365793330947
213  -2.87084292586558  13.3241822888764
214  -2.99623268324452  13.2043818374446
215  -3.11692905000455  13.0770535167353
216   -3.2328447923071  12.9420447209485
217  -3.34394800170851  12.7991710982978
218  -3.45027529454176  12.6482130707869
219   -3.5519484416716   12.488912739456
220  -3.64919522567601  12.3209715896517
221   -3.7423753806864  12.1440496557031
222  -3.83201246933778   11.957767183649
223  -3.91883246313847  11.7617103846466
224  -4.00380956834841  11.5554436326209
225  -4.08821939035118  11.3385314422522
226  -4.17369870446982  11.1105747493598
227   -4.2623096706175   10.871267324351
228  -4.35660398715759  10.6204793818097
229  -4.45967888398636  10.3583761985767
230  -4.57521173831759  10.0855790843168
231  -4.70745349113745  9.80337318908572
232  -4.86115367095582  9.51395976296502
233  -5.04138366507923  9.22073782208033
234  -5.25322369840888  8.92858061428313
235  -5.50128846898735  8.64404698232595
236  -5.78909288437516   8.3754423207746
237  -6.11830630237615  8.13263004630777
238  -6.48800593801265  7.92650891376585
239  -6.89409853403401  7.76812875024752
240  -7.32910180085008  7.66751672074795
241  -7.78243666626803  7.63239069200136
242  -8.24129766312297  7.66700314426965
243   -8.6916054058867  7.77211330942915
244  -9.11253284706688  7.95068482244476
245  -9.47068726842017  8.22102005796805
246  -8.84952713639536  9.00514875269306
247  -8.48827713346317  9.41557045355535
248  -8.75443044384599  9.86003735011644
249  -8.91781813519077  10.3483297233188
250  -8.90761056005767  10.8629859679422
251  -8.75914078020975  11.3577797772872
252  -8.12701879737897  12.2531392998602
253  -7.44162400157157  13.1035190376185
254  -6.77596444206385  13.9678873645527
255  -6.15543045252014  14.8680278702126
256  -5.50209620186238   15.751647916926
257  -4.75177059396983   16.559370019803
258  -3.86583524244417  17.2116143657458
259    -2.870087857711  17.6714223624279
260  -1.80962635622853  17.9435820118776
