// Id               X                Y
  1  -0.979664086358474  12.8001720582742
  2  0.0869675718604341  12.8489797508708
  3   1.13350170608264   12.689120608204
  4   2.16139731513426  12.3842647491863
  5   3.10494353939944  11.8990865258306
  6   3.96465138760762  11.2381726012522
  7   4.67729391271789  10.4621438364723
  8    5.3329253861828  9.64892247532236
  9   5.98829139602664  8.84741229819495
 10   6.59295886318874  8.07420712384721
 11   7.07930571264727    7.262841518894
 12   7.24178347999759   6.7433338244498
 13   7.25292357430914  6.17052728469418
 14   6.95656652036506  5.57322057555251
 15   6.29230321215761  5.36041715424531
 16   5.79577522437814  5.98199706684074
 17   5.69731601552356  6.20870694352497
 18   5.64239205575592  6.36160963694051
 19   5.59446271091726  6.51679808272486
 20   5.55261530353275  6.67487761059086
 21   5.51542675533231  6.83689737765205
 22   5.48235317420299  7.00264568915428
 23   5.45233885673605   7.1712560973277
 24   5.42460064143474  7.34198821177378
 25   5.39798708832492   7.5142462225351
 26   5.37153100482821  7.68763778766593
 27   5.34415903973658  7.86186458976437
 28   5.31493211686476  8.03670614671798
 29   5.28292486827334  8.21196439510246
 30   5.24731295224182  8.38745389104324
 31   5.20732779488178  8.56298046654855
 32   5.16228263896345  8.73834020404311
 33   5.11155434462138  8.91331570233725
 34   5.05458580573098  9.08768158933608
 35   4.99087341240676  9.26121137960379
 36   4.91995601559899  9.43369350734613
 37   4.84138762009121   9.6049671465328
 38    4.7546588840168  9.77503977055518
 39   4.65870589829557  9.94483428200436
 40   4.54932068430865  10.1196989164541
 41   4.42988373405148  10.2924729683415
 42    4.3011941805539  10.4615724675526
 43   4.16381952274704  10.6261754827135
 44   4.01830723774709  10.7857076327324
 45   3.86519417665822  10.9397332993538
 46   3.70499647108834  11.0879084194677
 47   3.53820161857304  11.2299519684315
 48   3.36526557098651  11.3656267502069
 49   3.18661384905593  11.4947264060444
 50   3.00264508323078  11.6170669771013
 51   2.81373560522298  11.7324817670323
 52   2.62024413201778  11.8408184781669
 53   2.42251597593997  11.9419378029089
 54   2.22088651527015  12.0357128535452
 55   2.01568386417954  12.1220289960731
 56   1.80723080326022  12.2007838054958
 57   1.59584609386497  12.2718869783772
 58   1.38184532003638     12.3352601245
 59   1.16554139682098  12.3908364178462
 60  0.947244864863462  12.4385601232064
 61  0.727264066445408  12.4783860340247
 62  0.505905272778701  12.5102788645558
 63  0.283472809386824  12.5342126391725
 64  0.0602692072556705  12.5501701169441
 65  -0.163404607499899  12.5581422827659
 66   -0.3872490836663  12.5581279289183
 67  -0.610965780413142  12.5501333438834
 68  -0.834257078759904  12.5341721189771
 69  -1.05682588216716  12.5102650779037
 70  -1.27837532026749  12.4784403295537
 71  -1.49860846913618  12.4387334399429
 72  -1.71722809942435  12.3911877148402
 73  -1.93393645997045  12.3358545801175
 74  -2.14843509884787  12.2727940421067
 75  -2.36042471579546  12.2020752054572
 76  -2.56960502924483  12.1237768216528
 77  -2.77567462752267  12.0379878384364
 78  -2.97833075749846  11.9448079203453
 79  -3.17726898587774   11.844347915395
 80  -3.37218265045796  11.7367302552263
 81   -3.5627620043395  11.6220892987803
 82  -3.74869295056054  11.5005716660641
 83  -3.92965527545413   11.372336661988
 84  -4.10532032627317  11.2375569628625
 85  -4.27534815502096  11.0964198305951
 86  -4.43938428013249  10.9491292290271
 87  -4.59705641410674   10.795909335653
 88  -4.74797177541604  10.6370100571271
 89  -4.89171593539446  10.4727152536532
 90  -5.02785449476879  10.3033544645037
 91  -5.15593909654313  10.1293191198874
 92  -5.27551899146238  9.95108507553685
 93  -5.38615745367979  9.76924720467618
 94   -5.4874439686378   9.5845908502492
 95  -5.57894128926009  9.39835543710494
 96   -5.6586456985364  9.21629241628971
 97  -5.72828702979588   9.0370308637943
 98  -5.78974887035906   8.8576916164478
 99  -5.84364274481946  8.67806700892728
100  -5.89048838106308  8.49822305455602
101  -5.93081703711815  8.31829694893526
102  -5.96520016409719  8.13844528178398
103  -5.99426216817356  7.95882635903144
104  -6.01868784652105  7.77959476751979
105  -6.03922670711547  7.60090333115216
106  -6.05669421410683   7.4229124201368
107  -6.07196890678933  7.24580850273827
108  -6.08598324614306  7.06983473737724
109  -6.09970449981677  6.89533515076518
110  -6.11410044722449  6.72280412932122
111  -6.13008717627309  6.55289640775144
112  -6.14847632847286  6.38625559551094
113   -6.1700033131463  6.22287326161825
114  -6.19554498922759  6.06119942730384
115   -6.2260139497864  5.90026088182439
116  -6.28266666396871  5.65905289880824
117  -6.63119903204444  4.94167996870296
118  -7.32175507843674  4.96542744964094
119  -7.75782439198443  5.44866003723672
120  -7.87840530375373  5.97355408749736
121  -7.82562475119749  6.49499587006571
122  -7.45727624855481  7.34440386184945
123  -6.94337147699968  8.11561443197658
124  -6.39355432180146  8.86201980911508
125  -5.85481849684519  9.61743893099345
126  -5.31979308159732  10.3806194811722
127  -4.69457446453973  11.1068567465445
128  -3.88104437113567  11.7697985248129
129  -2.99778650179347  12.2441763789609
130   -1.9914286020239  12.5651893770183
131  -0.653781951928548  13.2981613230979
132  0.463903816948531  13.3007357469249
133   1.56376396202108  13.1088660186659
134   2.61860242905133  12.7461186402433
135   3.59534110954087  12.2126126133826
136   4.46437372090064  11.5239529661077
137   5.21168543327027  10.7104380808778
138   5.90654416263756  9.85403772231238
139   6.58574598643287  8.98477926976333
140   7.20934897745063  8.07021403891608
141   7.63379877462679  7.03971084153293
142   7.64183574361005  6.32422753517705
143   7.39408537265063  5.65111138952929
144    6.9549250257463  5.08824860356372
145   6.52298458518949  4.58913483311404
146   6.31356334180209  3.82971630956374
147   6.02073271596892  3.44463481782116
148    5.6968510154614  3.38415882882173
149   5.38500745812929  3.46207645009603
150   5.10783227976174  3.62380966380599
151   4.86876750987846  3.82550881453858
152   4.65956147989634   4.0440370438247
153   4.47245157537067   4.2700582752684
154   4.30259451675929  4.49974566586442
155   4.14711869789925  4.73115095613439
156   4.00414551406945  4.96293263854905
157   3.87221709060424  5.19394342979496
158   3.75001971364904  5.42311330207696
159   3.63627187321814  5.64943479324234
160   3.52969849058593   5.8719794489411
161   3.42904495951288  6.08991927253364
162   3.33310577723499  6.30254355794641
163   3.24075277194675  6.50926938010795
164    3.1509549817321  6.70964623844068
165   3.06278665172319  6.90335457947672
166   2.97542460771757  7.09019330546743
167   2.88814464733611  7.27003956710575
168   2.80035524367265  7.44271998226932
169    2.7119600915017  7.60731040910484
170   2.62546837465058  7.75873992886695
171   2.53801856941114  7.90189371904304
172   2.44901248551408  8.03738057562666
173   2.35816705898482  8.16543026430666
174   2.26528440209455  8.28629750388116
175   2.17020691718713  8.40028816797693
176   2.07280578058886  8.50772858186869
177    1.9729799395394  8.60893216622578
178   1.87065818078901  8.70417682560452
179   1.76580108907227  8.79369408960716
180   1.65840165539042  8.87766714880124
181   1.54848432594788  8.95623437991945
182    1.4361027832113  9.02949559332832
183   1.32133692329356  9.09751912403104
184   1.20428948233387  9.16034866092415
185   1.08508266813265  9.21800926933361
186  0.963855033710623  9.27051242071639
187  0.840758719893905  9.31786004749564
188  0.715957108677381  9.36004773950807
189  0.589622870937851  9.39706723167494
190  0.461936358203597  9.42890832924381
191  0.333084273382814  9.45556039644678
192  0.203258553901297  9.47701350835376
193  0.0726554074541293  9.49325934049047
194  -0.0585255485883262  9.50429184941649
195  -0.190082081153663  9.51010778078837
196  -0.321810094771799  9.51070702916267
197  -0.453504360998428  9.50609286508581
198  -0.584959233947471  9.49627203887537
199  -0.715969357551781   9.4812547659777
200  -0.846330368101495  9.46105459507289
201  -0.975839595667129  9.43568815649419
202  -1.10429677005081  9.40517478440655
203  -1.23150474079675   9.3695360009274
204  -1.35727022635945  9.32879484332073
205  -1.48140461443448  9.28297500589265
206  -1.60372484303826  9.23209975569272
207    -1.724054399029  9.17619056533454
208  -1.84222447562667  9.11526538764298
209  -1.95807533069519  9.04933647714554
210    -2.071457880128  8.97840764646997
211  -2.18223554246923  8.90247083847388
212  -2.29028631926925  8.82150190889614
213  -2.39550504975479  8.73545556694583
214  -2.49780572109865  8.64425953718437
215  -2.59712365647915   8.5478082171379
216  -2.69341736218413  8.44595644693025
217   -2.7866698263276  8.33851450832002
218  -2.87688917514867  8.22524612552983
219  -2.96410886928974  8.10587195305826
220   -3.0483881176657  7.98008150662156
221  -3.12981392477283  7.84755600802216
222  -3.20850717341141  7.70800163824143
223  -3.28463670425888  7.56118380138479
224  -3.35845059725306  7.40692730844385
225  -3.43037213838334  7.24492925243612
226  -3.50227010612433  7.07150065839113
227  -3.57360952642259  6.88863410579574
228  -3.64397239425607  6.69879411676722
229  -3.71395158290329  6.50224061789952
230  -3.78428291223586  6.29907826036297
231  -3.85579188274312  6.08945344696107
232  -3.92939282121992  5.87360262241321
233  -4.00609060743634    5.651859205046
234  -4.08697695174802  5.42464416719885
235  -4.17322540688648  5.19244851766041
236  -4.26609848028658  4.95581152062734
237  -4.36699285977248  4.71530009006178
238  -4.47757107006697  4.47150487522931
239  -4.60006940057498  4.22510210903453
240   -4.7379413584061  3.97714275124124
241  -4.89704886442374  3.73010225517776
242  -5.08723757694426  3.49127528638984
243  -5.32145636652214  3.28139431000734
244   -5.6054190679042  3.14336775167793
245  -5.92989796870274  3.13367112552563
246  -6.29940263566681  3.44464364467348
247  -6.67816037120403  4.13540278307013
248  -7.21447519474487  4.49518360466894
249  -7.78377287415336  4.92037452250399
250  -8.18623818525199  5.51274148031333
251  -8.32484966950823   6.2148891713294
252  -8.06939222871983  7.29952259807433
253   -7.5350721466932  8.27214397323382
254  -6.90884890225051   9.1851839708179
255  -6.25287928648698  10.0774097046859
256   -5.5519817802518  10.9376652237193
257  -4.75353605638996  11.7116309708646
258  -3.84615659922469  12.3604055393033
259  -2.83235752176259  12.8258825929726
260  -1.75627763150233  13.1256143076061
