// Id               X                Y
  1  -0.156362286680003  4.63072329753285
  2  0.800035715176577  4.60751663476536
  3   1.73770671301104  4.53501537067174
  4   2.66818424764078  4.37485878698712
  5    3.5811676184668  4.10040679298562
  6   4.46774936131588  3.67533584034731
  7   5.28323802295138  3.04451781117584
  8   5.89998197033194  2.26492668114768
  9   6.36878336492465  1.40918510608642
 10   6.64194546472114 0.494457819052259
 11   6.58943149242393 -0.459844115248331
 12   6.31429884662502 -0.924575710627578
 13   5.85235663363024 -1.22220428990104
 14   5.29518988304979 -1.21252372229485
 15   4.87606032054158 -0.873471106915376
 16   4.74013765282809 -0.39023085894313
 17   5.60446754171928 0.861962022124346
 18   5.66486828385808  1.12103695965857
 19   5.68858017829943  1.33691214912146
 20   5.68876503015921  1.52524540820494
 21   5.67213715037454  1.69436046667298
 22   5.64207097435369  1.85105528154349
 23   5.60008117847693  1.99951930103466
 24   5.54693914233819  2.14187638884254
 25   5.48316201614295  2.27914402303411
 26    5.4092173176029  2.41173209883069
 27   5.32562153065805  2.53970999845708
 28   5.23297708146184   2.6629731406613
 29   5.13196834009161  2.78135005991276
 30   5.02334106758919  2.89467264911357
 31   4.90786966727809  3.00281353497787
 32   4.78632658765153  3.10570255689128
 33    4.6594573460511  3.20332848814198
 34   4.52796249913845  3.29573110240872
 35   4.39248830721323  3.38299087465165
 36   4.25362275208913  3.46521731374611
 37   4.11189622443369  3.54253931629396
 38   3.96778467515667  3.61509765853667
 39   3.82171395976351  3.68303962923876
 40   3.67406468685253  3.74651578484393
 41    3.5251769090877  3.80567803554375
 42   3.37535452105281  3.86067881624881
 43   3.22486921698331  3.91167084192686
 44   3.07396403879874  3.95880726659701
 45   2.92285648630854  4.00224188007931
 46   2.77174129779384   4.0421293920483
 47   2.62079292549953  4.07862566496039
 48   2.47016769775174   4.1118875609983
 49   2.32000591682955  4.14207317830152
 50   2.17043367734332  4.16934124917918
 51   2.02156476196581  4.19385090874478
 52   1.87350257958956  4.21576139331484
 53   1.72634214379773  4.23523070367458
 54   1.58017266670331  4.25241577304622
 55   1.43508064893173  4.26747077419909
 56   1.29115456714371  4.28054664183481
 57   1.14849219895496  4.29178935376898
 58   1.00721433146245  4.30134110020503
 59  0.867494066329389  4.30933139992379
 60  0.729643328586123  4.31589202690432
 61  0.594581947329022  4.32110784898865
 62  0.466759959773547  4.32503097359124
 63  0.339964216996927  4.32795079353379
 64  0.213590168939292  4.33000089726449
 65  0.0873928390227387  4.33113012019422
 66  -0.0387917234690332  4.33144688379373
 67  -0.165116453192621  4.33085105045308
 68  -0.291770982845577  4.32941190894443
 69  -0.419083175451859  4.32700933721199
 70  -0.548275220411484  4.32361058410002
 71  -0.685114062013643  4.31885092877618
 72  -0.824212684168881   4.3127376570261
 73  -0.96513020445775  4.30513290072012
 74  -1.10765282649028  4.29590530120945
 75  -1.25164230331367  4.28490715907864
 76  -1.39699380942756  4.27198784565822
 77  -1.54361750076446   4.2569889443158
 78  -1.69142955729271  4.23974904160794
 79   -1.8403464189938  4.22010268944767
 80  -1.99028109606191  4.19788225912215
 81  -2.14114050213665  4.17291923963222
 82  -2.29282319042998  4.14504427744038
 83  -2.44521769546662  4.11408895202957
 84  -2.59820078893069  4.07988594048365
 85  -2.75163591969591   4.0422698309486
 86  -2.90537164949286  4.00107778198703
 87  -3.05923989273963  3.95614961992143
 88  -3.21305412808332  3.90732828945706
 89  -3.36660727875276  3.85445972407003
 90  -3.51966936513955  3.79739276215315
 91    -3.671984786804  3.73597883760614
 92   -3.8232691766538  3.67007154245579
 93  -3.97320578700194  3.59952622069284
 94  -4.12144131120789  3.52419967114904
 95  -4.26758112294278  3.44395027842963
 96  -4.41118392635277  3.35863890548322
 97  -4.55175595062047  3.26813105064585
 98  -4.68874502556909   3.1723008113572
 99  -4.82153525865139   3.0710371798795
100  -4.94944353110715    2.964252867532
101  -5.07171961124538  2.85189514270263
102  -5.18755219077324  2.73395696517541
103   -5.2960828696373  2.61048458607715
104  -5.39642925491252  2.48157563610104
105  -5.48771517612989  2.34735854399335
106  -5.56910181002655  2.20794177954196
107  -5.63980682973418  2.06331855029723
108  -5.69908912356581  1.91320952524711
109  -5.74616404507199  1.75682535951976
110  -5.77998840274854  1.59253996276894
111  -5.79882673028592  1.41751398562905
112  -5.79949524839167  1.22738214125399
113  -5.77619764086389  1.01604405356394
114    -5.718647871553 0.774949656253897
115  -5.60692023436764 0.487786425067555
116  -4.67017482723953 -0.591646295770043
117   -4.6938240620177 -1.09769278924029
118  -5.01728606634822  -1.5329906699678
119  -5.55015753926206 -1.68585489726296
120  -6.06619926130039 -1.51573740788612
121  -6.43622360028184  -1.1306158791648
122  -6.66460480742395 -0.211057132899893
123   -6.5300640005715 0.723466860201457
124  -6.18254124844658  1.61492485282009
125   -5.7008696197686  2.44320949842005
126  -5.10014269229905  3.18229318158846
127  -4.22171808052179  3.80694437850175
128  -3.24331490607372  4.20579819634118
129  -2.23104541261706  4.45913088696948
130  -1.18690190880928  4.57551794779962
131  -0.380758730925646  5.17227550062611
132  0.749093001109207  5.19170912581132
133    1.8756692348136  5.10295574818889
134   2.98103714107416  4.87062934318899
135   4.03803376326823  4.47457765873661
136   5.01169715649093  3.90413263495153
137    5.8578843281808  3.15912020984414
138   6.50679096748742  2.23957432735672
139    6.9463933097803  1.20312221891258
140   7.09734321857503 0.0840638456645323
141   6.73788357422065 -0.989821393909078
142   6.18038796611601 -1.46665796782085
143   5.46044900651225 -1.60515083711011
144    4.7684968002056 -1.36887219551332
145   4.17695486206986 -0.945708936477434
146   3.48181333935136 -0.691320188815372
147   3.43971376571509 -0.65466565650667
148   3.37529696721159 -0.588844928554477
149   3.31505558464271 -0.518606887454256
150   3.25842694942016 -0.445869635009766
151   3.20475514729692 -0.371540961244442
152   3.15411930418662 -0.297327775225206
153   3.10621602339961 -0.224490247733755
154   3.06033088611378 -0.153642463114685
155   3.01564429496677 -0.0850901978442385
156   2.97137367338555 -0.0190038522142054
157   2.92682841500764 0.0445108969646855
158   2.88143121955506 0.105380872621654
159   2.83472383758971 0.163550306693631
160   2.78636387678134 0.218975300763217
161   2.73611575117431 0.271623978396094
162   2.68383767970503 0.321479555358504
163   2.62946625477799 0.368544146194751
164   2.57299998988038  0.41284171861148
165   2.51448314548431 0.454419274524182
166    2.4539909179916 0.493345986703652
167   2.39161675400623 0.529710532242685
168   2.32746217841021 0.563617173210926
169   2.26162917835944 0.595181234470448
170   2.19421492165434  0.62452456846948
171   2.12530843089051 0.651771446077133
172   2.05498877580877 0.677045135365185
173   1.98332436037221 0.700465271047361
174   1.91037293818687 0.722145998023295
175   1.83618206459054 0.742194797608314
176    1.7607897679042 0.760711868682997
177   1.68422528644594 0.777789927930443
178   1.60650976738284 0.793514303226873
179   1.52765685671874 0.807963213899852
180   1.44767312841164 0.821208155013126
181   1.36655830324318 0.833314326609176
182   1.28430519879815 0.844341071391416
183   1.20089932286008 0.854342306550431
184   1.11631794463958 0.863366961448312
185   1.03052831146015 0.871459466987692
186  0.943484358827688 0.878660388548794
187  0.855120546115793 0.885007372284291
188  0.765339369482772 0.890536730726882
189  0.673982325485089 0.895286314576767
190  0.580744303393421 0.899301192361515
191   0.48469945347747  0.90265069816111
192  0.381352790398644 0.905486462434879
193  0.276911168564406 0.907653382944276
194  0.171984830143387 0.909179672648319
195  0.0668220729106165  0.91008158036329
196  -0.0384076236821169 0.910364725723137
197  -0.143547117450081 0.910027218294647
198  -0.248403401364751 0.909059182357972
199  -0.352645154186488 0.907439237145355
200  -0.455050143533013 0.905144673561575
201  -0.549875995877576 0.902295703487555
202  -0.642533262165213 0.898736209767181
203  -0.733468375547168 0.894416087110429
204  -0.822891100523359 0.889298067226739
205  -0.910926444164334 0.883349402246896
206  -0.997657405959393 0.876537894726832
207  -1.08314235818302 0.868829822275237
208  -1.16742341739846 0.860188814403166
209  -1.25053095901543 0.850575201320843
210  -1.33248620226597 0.839945581300352
211  -1.41330268534607 0.828252472996908
212  -1.49298706190037 0.815443976897474
213  -1.57153945967882 0.801463402779025
214   -1.6489535234098 0.786248845222978
215  -1.72521620059596 0.769732708907191
216  -1.80030730454185 0.751841202700188
217  -1.87419887796068 0.732493840164322
218  -1.94685437753822 0.711603005921575
219  -2.01822770803181 0.689073672724479
220  -2.08826215390735 0.664803381819582
221  -2.15688929156981 0.638682626136797
222  -2.22402801676723  0.61059579660851
223  -2.28958389182797 0.580422857508823
224   -2.3534491043197 0.548041894960833
225  -2.41550342452361 0.513332619667926
226  -2.47561663708483 0.476180788340908
227  -2.53365297389574 0.436483335138918
228  -2.58947805273728 0.394153790396248
229  -2.64296868931917 0.349127353577746
230  -2.69402567237601 0.301364858732884
231  -2.74258917798583 0.250854926191288
232  -2.78865600059041 0.197613933965085
233  -2.83229727823702 0.141684124965658
234  -2.87367496162469 0.0831311762326133
235  -2.91305490996609 0.0220438062791262
236  -2.95081402898855 -0.0414606422880901
237  -2.98743797783114 -0.107219425396424
238  -3.02350440669164 -0.174990663408198
239  -3.05964526644137 -0.244399886465514
240  -3.09648535989212 -0.314879163257055
241   -3.1345751944923 -0.385649433348558
242  -3.17437724214315 -0.455827333599325
243  -3.21637284258396 -0.524639802200157
244  -3.26125239214407 -0.591469237717319
245  -3.30970581665149 -0.655003104895173
246  -3.34682646155204 -0.696878799084398
247  -3.99092264152327 -1.05639838321158
248  -4.47648690158055 -1.59276201845006
249  -5.09400814600229 -1.97858050485189
250  -5.82418334502705 -2.01109015540662
251  -6.47282329713633 -1.67197212146753
252  -7.04086477492326  -0.6945290115098
253  -7.07092043429295 0.432366691794168
254  -6.78468034607665  1.51804263206205
255  -6.28753746819846   2.5227936486015
256  -5.62464232291154  3.42718727640436
257  -4.72534460636687  4.10182509617164
258  -3.70266527498583  4.57762845066511
259  -2.62092673167599  4.89974259481163
260  -1.50530008801941  5.07425155330824
