// Id               X                Y
  1  -0.0698152415746863 -0.0612931778513851
  2  0.893694123118436 -0.0755190333873795
  3   1.80318970838633 0.0908185764144983
  4   2.65665240687408 0.404015973466444
  5   3.45287872951174 0.818869056030671
  6   4.21156787226999  1.27895459404477
  7   4.96662181096627   1.7254444312451
  8   5.75152707117914  2.09782632836471
  9   6.58308879594897  2.33276510223165
 10   7.44388633607015  2.35264867056166
 11   8.27797334259936  2.10743109244266
 12   8.65616820648242  1.82151730837799
 13    8.9418915658019  1.39340109031914
 14   8.98415338867062 0.843438795862214
 15   8.66380917012306 0.438275833523334
 16   7.91401665547116 0.646196970979216
 17   7.32363191407415  0.82294070512046
 18   7.03932803377375 0.822523164071573
 19   6.81981071223915  0.77794545025439
 20    6.6292843534365 0.705832616691111
 21   6.46367943852264 0.618048582039501
 22   6.31865673501797 0.524045030694713
 23     6.191452977847 0.431685862163037
 24   6.06841082836297 0.337368391935049
 25   5.94469402842926  0.24178927646797
 26    5.8196941983684 0.148317284042202
 27    5.6918625018501 0.0588431360849042
 28   5.56020522580256 -0.0251213683596742
 29   5.42438990778291 -0.10238469410346
 30    5.2846209718348 -0.172147018242763
 31   5.14144163142664 -0.234043062695688
 32   4.99553600490648 -0.288112937190979
 33   4.84757604699634 -0.334712996950106
 34   4.69813089764991 -0.37440039221406
 35   4.54763859917074 -0.40782231587942
 36   4.39642363242649 -0.435630394066817
 37   4.24475032010186 -0.458425784840089
 38   4.09288881626008 -0.476735163428126
 39   3.94105173376579 -0.49102124481453
 40   3.78918481110583 -0.501699944764384
 41   3.63718673969324 -0.509120477590765
 42   3.48507084258537 -0.513578007918466
 43   3.33291927786966 -0.51534112462648
 44   3.18084124028564 -0.514668561978321
 45   3.02895287772592 -0.511817744842853
 46   2.87736774684693 -0.507048260621294
 47   2.72619198731021 -0.500621998211707
 48    2.5755219153787 -0.492801214739753
 49   2.42544304932529 -0.483845560541931
 50   2.27603002060272 -0.474008853896576
 51     2.127347035293 -0.463536130076669
 52   1.97944867595691 -0.452661234790058
 53   1.83238092970643 -0.441605026342286
 54    1.6861823423132 -0.430574109834848
 55   1.54088511199192 -0.419759949023661
 56   1.39651573089843 -0.409338177878332
 57   1.25309452026985 -0.399467959027575
 58   1.11063329091964 -0.390291313272743
 59  0.969130691123523 -0.381932470918942
 60  0.828565702004023 -0.374497433141723
 61  0.688890823083185 -0.368073996700608
 62  0.550027003388923 -0.362732418191793
 63  0.411861891448054 -0.358526698800683
 64  0.274251868790623 -0.355496268674997
 65  0.137027340741819 -0.35366774200632
 66  3.10696034847521e-07 -0.353056418686382
 67  -0.137026713243668 -0.353667284222127
 68  -0.274251223965673 -0.355495359333001
 69  -0.411861221015482 -0.358525350520197
 70  -0.550026303838589 -0.362730650293472
 71  -0.688890097265521 -0.368071835605862
 72  -0.828564960314371 -0.37449491278771
 73  -0.96912995211542 -0.381929633095842
 74   -1.1106325812682 -0.390288207790879
 75  -1.25309387417823 -0.399464643646315
 76  -1.39651518921521 -0.409334717972076
 77  -1.54088472135984 -0.419756416998013
 78   -1.6861821545722 -0.430570584325208
 79  -1.83238100160063 -0.441601591225591
 80  -1.97944906906867 -0.452657978037862
 81  -2.12734781606242 -0.463533142481841
 82  -2.27603126031555 -0.47400622772317
 83   -2.4254448239214 -0.483843388161301
 84  -2.57552430504332 -0.492799587328468
 85  -2.72619507560658 -0.500621004557018
 86  -2.87737161953265 -0.507047986053294
 87  -3.02895762058154 -0.511818270187985
 88  -3.18084693681114 -0.514669962385098
 89  -3.33292600458773 -0.515343467920611
 90  -3.48507866550076 -0.513581352197029
 91  -3.63719570405593 -0.509124867821482
 92  -3.78919493898809 -0.501705408103887
 93  -3.94106300920084 -0.491027785572145
 94  -4.09290124457383 -0.476742750741718
 95  -4.24476393957879 -0.45843433667913
 96  -4.39643850611613 -0.435639760283414
 97  -4.54765461970613 -0.40783230298255
 98  -4.69814806035079 -0.374410718862698
 99  -4.84759410034247 -0.334723382446443
100   -4.9955547926836 -0.288123052608553
101  -5.14146086350436 -0.234052641852971
102  -5.28463980856871 -0.172156145205275
103  -5.42440836352478 -0.102393295696589
104  -5.56022162811589 -0.0251306261043801
105  -5.69187747293513 0.0588328916868387
106  -5.81970663323651 0.148304145341937
107  -5.94470374431172  0.24177145553255
108  -6.06841791124548 0.337344016735526
109   -6.1914523801304 0.431649215370886
110  -6.31865441014747 0.523999234553892
111  -6.46366800135466 0.617987225852378
112  -6.62926687964695 0.705757936222223
113  -6.81973792941515 0.777843667347014
114  -7.03923083792622 0.822419070958363
115  -7.32353944105529 0.822845918094069
116  -7.91393155319567 0.646136076917146
117  -8.66373470143722 0.438267154884899
118  -8.98405665874121 0.843421973411445
119    -8.941792031938  1.39336041473528
120  -8.65607292231401  1.82146657192166
121  -8.27788031380652  2.10737568633556
122  -7.44379921694965   2.3525853665037
123  -6.58302477929285  2.33274357862995
124  -5.75144101946159  2.09812022175721
125  -4.96638004212545  1.72641558199587
126  -4.21158295162768  1.28050965641518
127  -3.45602663436535 0.819528321832453
128  -2.67061696129011 0.401364743097802
129  -1.84011238010502 0.0858275302291611
130  -0.968626027779278 -0.0759519589679363
131  0.0202955499175115 0.496556233882068
132  0.881859608099995  0.54302165056693
133   1.73012103648052 0.712201132140705
134   2.54988094326501  1.01844078484575
135   3.33731308032328  1.42991932348874
136   4.11193985136485  1.89182692535774
137   4.91043892390944  2.34294675678084
138   5.77329471244738  2.71445412231239
139   6.77538001661644   2.9198710926552
140   7.82966023483575  2.79702074926867
141   8.71805059949385  2.25705792732082
142   9.12772245764581  1.67007113690328
143   9.31030696634658  1.02670137830961
144   9.32145435162837 0.468116476022174
145   9.20332620894172 -0.186887416423293
146   8.94937266746361 -0.968640172635176
147   8.94936914260154 -0.96864757354768
148   8.87035414073678 -1.12341158643852
149   8.78252603292683 -1.27348224980157
150   8.68634201891262 -1.41770657780209
151   8.57773489619713 -1.56110816871037
152    8.4550357314672 -1.70381861227067
153   8.31606604933481 -1.84608819185064
154   8.16983428581133 -1.97820525325852
155   8.01973480063962 -2.09871113991976
156   7.86501627197458 -2.20978340050958
157   7.70591622340412  -2.3124150528173
158   7.54268057574867 -2.40742937443637
159   7.37554962643629 -2.49553217960753
160   7.20477409092693 -2.57732846323091
161   7.03060998511296 -2.65334183605632
162   6.85330077081099  -2.7240311048816
163   6.67305855970258  -2.7898007354891
164   6.49005178330232 -2.85100589726091
165   6.30439687745958 -2.90795598133517
166   6.11615447029994 -2.96091781615382
167   5.92532418375995 -3.01012066762142
168   5.73184928076738 -3.05575976369821
169   5.53574741067717 -3.09797530981457
170   5.33734988897023 -3.13682619571253
171   5.13709050509874  -3.1723628717092
172   4.93532026414384 -3.20466912662255
173   4.73232034839231 -3.23385658785326
174   4.52832653430839 -3.26005860214507
175    4.3235427607762 -3.28342657655491
176   4.11814824231546  -3.3041269839933
177   3.91230118879603 -3.32233822234355
178   3.70614081263695 -3.33824714207869
179   3.49978848197299 -3.35204535566861
180   3.29334840077399 -3.36392555022744
181   3.08690792245799 -3.37407802762188
182   2.88053747317317 -3.38268764637221
183   2.67429003176911 -3.38993127033091
184   2.46820019125502 -3.39597576255202
185   2.26228302875083 -3.40097650634258
186   2.05653334008714 -3.40507640173498
187   1.85092615827415 -3.40840526686876
188   1.64541962542481 -3.41107957262929
189   1.43996088040701 -3.41320244328865
190   1.23449454036663 -3.41486385601478
191    1.0289720552215 -3.41614096449033
192  0.823359577051518 -3.41709846462247
193  0.617642509320311 -3.41778892807763
194  0.411826173916731 -3.41825305652008
195  0.205933186015723 -3.41851984447669
196  -1.36712099142193e-06 -3.41860666628671
197  -0.205935925758897 -3.41851931339922
198  -0.411828929677314  -3.4182520040111
199  -0.617645290174386 -3.41778737336641
200  -0.823362389759106 -3.41709643640101
201   -1.0289749035485 -3.41613850075287
202  -1.23449742478791 -3.41486100386998
203  -1.43996379838852 -3.41319925875998
204  -1.64542257238189 -3.41107612044439
205  -1.85092912910556 -3.40840162021972
206   -2.0565363309743 -3.40507264197347
207  -2.26228603884688 -3.40097272255858
208  -2.46820322399099 -3.39597205098655
209  -2.67429309569849 -3.38992773357236
210   -2.8805405824117 -3.38268439231011
211  -3.08691109683653 -3.37407516814343
212  -3.29335166577321 -3.36392319966094
213     -3.49979186851 -3.35204362901096
214  -3.70614435663525 -3.33824615306952
215  -3.91230493064296 -3.32233808147437
216  -4.11815222592601 -3.30412779658601
217  -4.32354703276346  -3.2834284410012
218   -4.5283311422761 -3.26006160853404
219  -4.73232534034162 -3.23386081688115
220  -4.93532568524245  -3.2046746493007
221  -5.13709639862157 -3.17236974895449
222   -5.3373562862986 -3.13683448008895
223   -5.5357543293273  -3.0979850464977
224  -5.73185665178686 -3.05577100740435
225  -5.92533183152992 -3.01013349571006
226  -6.11616211626359 -2.96093234036208
227  -6.30440432675046 -2.90797230496416
228  -6.49005866510041 -2.85102419094736
229  -6.67306470182245 -2.78982112740994
230  -6.85330592748288 -2.72405376223762
231  -7.03061415002124 -2.65336684525933
232  -7.20477795826082 -2.57735558320103
233   -7.3755531200794  -2.4955614464194
234  -7.54268538347767 -2.40745982747241
235  -7.70592136457828 -2.31244701688495
236  -7.86502218032633 -2.20981633007933
237   -8.0197400014325 -2.09874571366062
238  -8.16983531777498 -1.97824406048197
239  -8.31606204452379 -1.84613230123806
240  -8.45501550184149 -1.70388065738389
241  -8.57770546643101 -1.56118327576056
242  -8.68631284356842  -1.4177838154871
243  -8.78254010951256 -1.27349224116406
244  -8.87038793862426  -1.1233769621738
245  -8.94939913024478 -0.968603999436894
246  -8.94940257331971 -0.968596769394558
247  -9.20331527291883 -0.186837053414823
248  -9.32139809215892 0.468123403487426
249  -9.31022722935512  1.02668312224719
250  -9.12762927107875   1.6700220812239
251  -8.71794632186259   2.2569887741319
252  -7.82959412191705  2.79690488388878
253    -6.775364377046  2.91983050134587
254  -5.77322776456847  2.71483149851277
255  -4.90993135148626  2.34394684290934
256  -4.11107207319742  1.89302894316883
257  -3.33614039771417  1.42914021887115
258  -2.54657445720155  1.01216085858138
259    -1.719744749382 0.700302872649875
260  -0.857200732867844 0.532471243267033
