// Id               X                Y
  1  -0.103069529432216  4.64416338439269
  2  0.939595993841137   4.6382681531389
  3   1.90714169215106  4.54210795996881
  4   2.83475908787522  4.37289658762441
  5   3.71830473292768  4.07701790454237
  6   4.60095319996009  3.65123634182728
  7   5.40186758401064  3.18864006027266
  8   6.24448553756522  2.81098944564367
  9   7.13047337500449  2.55144310051642
 10   8.02891029289748  2.32891194881015
 11   8.87885706572819  1.94991018209125
 12   9.23499445161919  1.57086134436477
 13   9.41708431967912  1.08338171027175
 14    9.3456213473577 0.563667719812212
 15   9.00950109271505 0.157754507479342
 16   8.37740593347658 -0.00702676947106358
 17   8.07552932980443 0.0346356776581473
 18    8.0057055303239 0.0538428435609292
 19   7.92402850502915 0.0809738517690047
 20   7.82919336713839 0.118895608011972
 21   7.73013099012614 0.165850147408271
 22   7.63106024403166 0.220420397276611
 23   7.53348226939507 0.281696099357035
 24   7.43784415797138 0.349098374124189
 25   7.34413297254886 0.422257721035513
 26   7.25211284019554 0.500965880258973
 27    7.1614204412362 0.585144715332908
 28   7.07159921714044 0.674835318345254
 29   6.98210195610845 0.770200400031261
 30   6.89227376594839 0.871539816452472
 31   6.80131844134489 0.979319465999553
 32   6.70825334199715   1.0942061720275
 33    6.6118673776958  1.21708195181464
 34   6.51070971279328  1.34898577357157
 35   6.40315214450971  1.49090934049822
 36   6.28762587863049  1.64331885139078
 37   6.16312626291853  1.80535704199495
 38   6.02929259214164  1.97479901586418
 39    5.8859085366303  2.14895569293167
 40   5.73274773501521  2.32514707426717
 41   5.56963066549191  2.50085474613583
 42   5.39649132988393   2.6737994852704
 43     5.213428580343  2.84197759483351
 44   5.02073768977416  3.00367315215635
 45   4.81892248537685  3.15745883957059
 46   4.60869070273198  3.30219230406157
 47   4.39093554730774  3.43701079345735
 48   4.16670569858423  3.56132436897012
 49   3.93716521505851  3.67480663553492
 50   3.70354472982715  3.77738122069262
 51   3.46708611489894  3.86920213955836
 52   3.22898393651162  3.95062683208998
 53   2.99032771743048  4.02218195924408
 54   2.75204892531232  4.08452351501044
 55    2.5148766110757  4.13839377372744
 56   2.27930773593978  4.18457766640206
 57    2.0456030002153  4.22386083161837
 58   1.81381985380829  4.25699213352572
 59    1.5838788568375  4.28465515307959
 60   1.35563356462726  4.30745273958565
 61   1.12891162732445  4.32590356909796
 62  0.903523695199642  4.34044473352466
 63  0.679259359147132   4.3514350116521
 64  0.455885783372452  4.35915706269696
 65  0.233151798501254   4.3638188839182
 66  0.0107941694357029  4.36555498886739
 67  -0.211456550070187  4.36442734138567
 68  -0.433871058729419  4.36042589859268
 69  -0.656716622550607  4.35346866655678
 70  -0.880251875375162  4.34340129465666
 71  -1.10472086863943  4.32999633267297
 72  -1.33034760016194  4.31295224095925
 73  -1.55733389519487   4.2918919700966
 74  -1.78586181865215  4.26636068027713
 75  -2.01609303199281  4.23582301258427
 76  -2.24814766837562  4.19966305846249
 77  -2.48205218116579  4.15719266759314
 78  -2.71767221751571  4.10767190939304
 79   -2.9546624954414  4.05034024570295
 80  -3.19245121180353  3.98445413168345
 81  -3.43025471423746  3.90932769283404
 82  -3.66711117269511  3.82437436894434
 83  -3.90192531625541  3.72914741014953
 84  -4.13351987687509  3.62337678916287
 85  -4.36069035218486  3.50700041172653
 86  -4.58225942497285  3.38018857594622
 87  -4.79712738603331  3.24336198183007
 88  -5.00431561305752  3.09720463985923
 89  -5.20300108956605  2.94267341862168
 90  -5.39254044891067  2.78100564848829
 91  -5.57248184104186  2.61372517280735
 92  -5.74256238656022  2.44264528546975
 93  -5.90268893413777  2.26986357528995
 94  -6.05290128711475  2.09773848719418
 95   -6.1933208103422  1.92883156241739
 96  -6.32409760361694  1.76579149227662
 97  -6.44545418616477  1.61106223692764
 98  -6.55807830730082  1.46612319702412
 99  -6.66335273098827   1.3310303691832
100  -6.76292448996027   1.2050100792057
101  -6.85834943031561  1.08706363767001
102  -6.95097095890377 0.976260030651825
103   -7.0419062955359 0.871847202730134
104  -7.13208111756918 0.773265417819415
105  -7.22227776042164 0.680122717855087
106  -7.31317598825574 0.592169296217422
107  -7.40537588322245 0.509286247306495
108  -7.49939525954879 0.431492792493115
109  -7.59562632257365 0.358974165165247
110  -7.69421648861762 0.292133645944655
111  -7.79479140850807 0.231674910728513
112  -7.89576663513224 0.178753509007921
113  -7.99256569166598 0.135271672041839
114  -8.07568696028652 0.103566075798077
115  -8.14667238894078 0.0805908679107823
116  -8.44866301749993 0.0233740034366528
117  -9.09277275504467 0.147805314725014
118  -9.45790522375446 0.527341352196601
119  -9.56762507177151  1.03904654801544
120  -9.41767539611389  1.53573783664938
121   -9.0807671597832  1.93009501002159
122  -8.24001274238726  2.32539116961798
123  -7.34144976885028  2.54101972907528
124  -6.45132109517073  2.77956491858542
125  -5.60158373293391  3.13530213032817
126  -4.79839243482567  3.58824270845015
127   -3.9601912708842  4.02343481819003
128  -3.09038075422258  4.31788567031979
129  -2.17504934438977  4.49062119124187
130  -1.13537675565618  4.56550938770255
131  -0.113258600657037  5.23157598552082
132  0.854857954651519  5.22202282804049
133   1.84919462972809  5.13304748358994
134   2.83834514070032  4.96597310506138
135   3.78806542823099  4.67572414527767
136   4.66459356545403  4.25671600662189
137   5.50439550653948  3.79340445430292
138   6.36488858594709  3.41138108425962
139   7.26249160591076   3.1480757294685
140   8.16828935288636  2.92165826278813
141   9.02640997087808  2.55769770422755
142   9.53344555440222  2.11628541960576
143   9.86314906005438  1.52971857140211
144   9.90376444294631 0.855560646743207
145   9.69962129925258 0.206188433097573
146   10.1793610814589 -0.235691308645223
147   10.8761183482013 -0.898848375697626
148    10.729798955914 -1.26684827716462
149   10.4689256059316 -1.55714595441141
150   10.1649925751297 -1.79387802966728
151   9.83929811954872 -1.98785875472243
152   9.49993339409586 -2.14241670101277
153   9.15202694397694 -2.25873446163331
154    8.7999878438357 -2.33786837644444
155   8.44788700032264  -2.3813093631649
156    8.0994245412598 -2.39102476547978
157    7.7578603965875 -2.36935241206777
158   7.42598915082254 -2.31888516444273
159   7.10615437362454 -2.24237649759959
160    6.8002902170001 -2.14265964429368
161   6.50998589946517 -2.02257570577626
162   6.23656267043236 -1.88492641718276
163   5.98112698121261 -1.73248686222981
164    5.7445324187835 -1.56811039077152
165    5.5271798273069 -1.39489756940087
166   5.32860133062921 -1.21621834138292
167   5.14690545970589 -1.03522119112528
168   4.97897733755641 -0.854425911212119
169   4.82142792781724 -0.675967471513639
170    4.6711013729973 -0.501691875524972
171   4.52524869678222 -0.333129737322575
172   4.38158581919736 -0.171504181261715
173   4.23828364775761 -0.0177609228251237
174   4.09392105951364 0.127398079904932
175   3.94742189222975 0.263484878042003
176   3.79798816957452 0.390200412307517
177   3.64503657164785  0.50741211468444
178   3.48814293432977 0.615132123271986
179    3.3269985422347 0.713495063047913
180   3.16138072704282  0.80273583623301
181   2.99113824695295 0.883168996761774
182   2.81618956776227 0.955171400160269
183   2.63653051125639  1.01916880526579
184   2.45224732356044  1.07562558549283
185   2.26353111059404  1.12503569930331
186   2.07068751964371  1.16791322893398
187    1.8741307182378  1.20478178998863
188   1.67434960807063  1.23616265165268
189   1.47184917515089  1.26256091222861
190   1.26709482719856   1.2844497024459
191   1.06048890088602  1.30225532188958
192  0.852379491082088  1.31634724312241
193  0.643080337950733  1.32703375344372
194  0.432885619183963  1.33456083445298
195   0.22207728100639  1.33911178308954
196  0.0109288040189218  1.34080662428689
197  -0.200291490505683  1.33970146840568
198  -0.411316710140336  1.33578819540372
199  -0.621877518930142  1.32899466190099
200  -0.83169858303614  1.31918537470491
201  -1.04049521463144  1.30616235571219
202  -1.24796855285365  1.28966589693926
203  -1.45379587744852  1.26937545586858
204  -1.65761436574556  1.24491221819599
205  -1.85900582338661  1.21584578219292
206  -2.05750087671001  1.18170604402185
207  -2.25261561513622  1.14199805445577
208  -2.44390770205043  1.09621631529686
209   -2.6310224517936  1.04385717649892
210  -2.81371276093443 0.984429882378853
211   -2.9918378532157 0.917466621002372
212  -3.16535244732585 0.842531762441088
213  -3.33429447139785  0.75923122846863
214  -3.49877584031991 0.667223628251719
215  -3.65897981666687 0.566234566352373
216  -3.81516850849477 0.456074428980518
217  -3.96770341798756 0.336658704358688
218    -4.117080263336 0.208029314478487
219  -4.26397720092605 0.0703758920363944
220  -4.40931382208303 -0.0759428345910985
221   -4.5543169437064 -0.230376037599694
222  -4.70058735983477 -0.392153983901384
223   -4.8501577826371 -0.560256252954422
224  -5.00552476883317 -0.733377970625023
225  -5.16962712694462 -0.909905628349721
226  -5.34573117199232 -1.08792006491794
227  -5.53710470329238 -1.26516959493282
228  -5.74621884028116 -1.43883952549971
229  -5.97413620310401 -1.60564588756977
230  -6.22084677411886   -1.762394621798
231  -6.48575106125916 -1.90615298705161
232  -6.76793324630274 -2.03412315031675
233  -7.06625654805128 -2.14351427258676
234  -7.37934064478304 -2.23149907115846
235  -7.70549290985603 -2.29524245165928
236  -8.04264274169932 -2.33196657961314
237  -8.38829866162194 -2.33902799282392
238  -8.73953331666875 -2.31400083780362
239  -9.09300070371958 -2.25476467008145
240  -9.44497756296455 -2.15956218751838
241  -9.79134285658313 -2.02689267503941
242  -10.1271463802482    -1.85487349909
243  -10.4444081082474 -1.63909116556551
244  -10.7221794502359 -1.36687808616275
245  -10.8901291049124  -1.0100388922477
246  -10.2393630443154 -0.31387350190245
247  -9.78530248381849  0.15383154699474
248  -10.0347850851047 0.787854433097802
249   -10.036231948545  1.46413041405921
250  -9.73754068218061  2.06832336549618
251  -9.24639853998902  2.52907315762077
252   -8.3959238235029  2.91352378114082
253  -7.48761667428765  3.13429917656647
254  -6.58378011641751  3.37729857192285
255  -5.71531259207831  3.73799248548468
256  -4.87693615969042  4.19399242047142
257  -4.00518837008618  4.62694045949163
258  -3.05403363930201  4.92051812036166
259  -2.04603031278546  5.07245386519442
260  -1.07519191974144  5.15477779429825
