// Id               X                Y
  1  -0.085851015316613  1.64728344420548
  2  0.929525647176385  1.65146242138714
  3   1.97138642027648  1.65381872644062
  4   3.02214184080908  1.63135029688593
  5    3.9639682547772  1.54011162137697
  6    4.9022297667075  1.52686823825132
  7   5.82727673646879  1.68663944258324
  8   6.71982176510662  1.99141206227899
  9   7.61061439896589  2.30451429864588
 10   8.54530618913454  2.39315343603182
 11   9.36661518215874  1.94918927112437
 12   9.54393247316817  1.45257160297553
 13   9.42913458172607 0.939137682731391
 14   9.06559157090853 0.552195583110606
 15    8.5634466717367 0.361981009970569
 16   7.85367110079154 0.387648739182251
 17   7.29427394262699 0.493669925406369
 18   7.19375615372213 0.516085824626072
 19   7.12397852129516 0.532180939728321
 20   7.06376616524974  0.54640768451132
 21   7.00060889147534 0.561622557277316
 22   6.92984558198914 0.579026629446593
 23   6.85039988866602  0.59895789992226
 24   6.76233870195994 0.621490544792155
 25   6.66606248263834 0.646576139915122
 26   6.56206646903186 0.674105099326076
 27   6.45086414001008 0.703914508691843
 28   6.33295805528603 0.735793827153365
 29   6.20882510895966 0.769488931389572
 30    6.0789089539344 0.804707621754427
 31   5.94361725589138 0.841126225653931
 32   5.80332264742016 0.878397019676471
 33    5.6583664166476 0.916156114259349
 34   5.50906403276354 0.954031523938585
 35   5.35571170416008 0.991651216710171
 36   5.19859327993748  1.02865099164552
 37   5.03798691534127  1.06468206793513
 38   4.87417101238227  1.09941828096069
 39   4.70742901954484  1.13256277323943
 40   4.53805274115432  1.16385404370797
 41   4.36634388534828  1.19307118466853
 42   4.19261368706356  1.22003810266993
 43   4.01718058925484  1.24462650183123
 44   3.84036614786545  1.26675742044533
 45   3.66248952181055  1.28640116485842
 46   3.48386108048981  1.30357558000365
 47   3.30477576538701  1.31834272232494
 48   3.12550684836599  1.33080413552765
 49   2.94630063298083  1.34109504508994
 50   2.76737247193526  1.34937786056577
 51    2.5889042687548  1.35583539411757
 52   2.41104344138765  1.36066417233638
 53   2.23390318251652  1.36406814996274
 54   2.05756376829547  1.36625304681815
 55    1.8820746392192  1.36742143985366
 56   1.70745698949372   1.3677686626333
 57   1.53370663812298  1.36747950112325
 58   1.36079700205648  1.36672562910001
 59   1.18868203959367  1.36566369758911
 60   1.01729907536428  1.36443397776489
 61  0.846571454227935  1.36315945249457
 62  0.676410999940428  1.36194525518131
 63  0.506720276044086  1.36087836320368
 64  0.337394662230858  1.36002746507941
 65  0.168324270567671  1.35944293405994
 66  -0.000604266461145525  1.35915685522564
 67  -0.169506099255516  1.35918306771983
 68  -0.338496516020358  1.35951719824498
 69  -0.507689308226618  1.36013667626419
 70  -0.677195105459963  1.36100073554475
 71  -0.847119639666723  1.36205042083545
 72  -1.01756190136698  1.36320863264872
 73  -1.18861215473092  1.36438025728537
 74  -1.36034978508196  1.36545244318554
 75  -1.53284096217433  1.36629509794811
 76  -1.70613611644841  1.36676169213062
 77  -1.88026724445895  1.36669046499693
 78  -2.05524508484103  1.36590613200857
 79  -2.23105623825958  1.36422219182716
 80  -2.40766034374895   1.3614439192205
 81  -2.58498746814322   1.3573721066096
 82   -2.7629359108971  1.35180757834893
 83  -2.94137066594395  1.34455644654799
 84  -3.12012280369225  1.33543600595894
 85  -3.29899002492292   1.3242810825808
 86  -3.47773857932568  1.31095056553809
 87  -3.65610662591928  1.29533377883439
 88  -3.83380894545014  1.27735630590327
 89  -4.01054271955052   1.2569848807043
 90  -4.18599390801613  1.23423101168666
 91  -4.35984362921252  1.20915310394709
 92  -4.53177391271801  1.18185697231855
 93  -4.70147225575018  1.15249476849342
 94   -4.8686345557254   1.1212624542152
 95  -5.03296617258644  1.08839602424766
 96  -5.19418105663434  1.05416671327625
 97  -5.35199903277645   1.0188754164047
 98  -5.50614145072626 0.982846525487762
 99  -5.65632550002855 0.946421346040323
100  -5.80225756727308 0.909951222305716
101   -5.9436261028333  0.87379046828595
102  -6.08009458425324 0.838289184823704
103  -6.21129531874537 0.803786041669046
104  -6.33682500279463 0.770601124702488
105  -6.45624311460601 0.739028996949703
106  -6.56907432428665 0.709332188923499
107  -6.67481628186365 0.681735357672765
108  -6.77295514751699  0.65642010169074
109  -6.86299625928917 0.633519077284238
110  -6.94453852171829 0.613102772111767
111   -7.0175029674224 0.595132811542374
112  -7.08291834646715 0.579288253208013
113  -7.14546260140402 0.564394792976612
114  -7.21797417283311 0.547465334601126
115  -7.32223275846287  0.52382063032087
116  -7.88095395153371 0.413101071848006
117  -8.59020619432386 0.374181478530068
118  -9.09943205900768 0.547766878022494
119  -9.48063951188804 0.917554815437433
120    -9.623859754822  1.42375923997307
121  -9.47528116781998  1.92922399233995
122  -8.67836824467446   2.4097825359204
123   -7.7450821876655  2.33988190780029
124  -6.85912534125227  2.02613001395316
125   -5.9755174079543  1.70910285843556
126  -5.05719202600191   1.5331499641374
127   -4.1217777649749  1.53560068188836
128  -3.17827480082641  1.62974595351306
129  -2.14661297902914  1.65209253759161
130  -1.11260089704626   1.6225722479257
131  -0.0551002649723068  2.23861082668344
132  0.917266486772089  2.24460701151615
133   1.88741317685087  2.24111523143309
134   2.86078455206733  2.21583528937381
135   3.86502811228892  2.14143065963255
136   4.83722964651874  2.13191016429038
137   5.79775426997743  2.29610622571175
138   6.78547776356216  2.60195710331868
139   7.80638427544991  2.88674448638054
140   8.87756887541969  2.90020879035236
141   9.76191106473084  2.29437906164341
142    10.059488126961  1.69503392055776
143   10.0320569404832  1.02528592373902
144   9.70278542600517 0.439348716355983
145    9.1940156555218 0.0070903398002356
146   9.72826956401679 -0.46939686491605
147   9.86209915319701 -0.767015714243653
148   9.73619696763461 -1.02585884151313
149   9.56405713765203 -1.25377028992116
150   9.35907908404231 -1.45109372701219
151   9.13228849440831 -1.61894283423684
152   8.89158973215268 -1.75910804627354
153   8.64232247350234 -1.87338965772943
154   8.38845547800908 -1.96383155246904
155   8.13304845101543 -2.03273591294997
156   7.87843348222383 -2.08254876589712
157   7.62633001521395 -2.11573392529949
158    7.3779479651489 -2.13467380754498
159   7.13408535003495 -2.14160414114336
160   6.89521681135272 -2.13857818153992
161   6.66156976751725 -2.12745269696716
162   6.43318713723303 -2.10988818906508
163   6.20997730924241 -2.08735733655828
164   5.99175296240209 -2.06115741741652
165   5.77826063753108 -2.03242400040906
166   5.56920289445421 -2.00214435427483
167   5.36425466137728 -1.97116981534489
168   5.16307512556156 -1.94022685716098
169   4.96531628420427 -1.90992690206563
170    4.7706290879853 -1.88077507433631
171   4.57866795693643 -1.85317816624177
172   4.38909430828781 -1.82745210315009
173   4.20157958851927 -1.80382916946233
174   4.01580813671853  -1.7824652049269
175   3.83148002927235 -1.76344691025286
176   3.64831388879912 -1.74679932211452
177    3.4660495133976 -1.73249344162675
178   3.28445012084717 -1.72045393720545
179   3.10330401341757 -1.71056679947226
180   2.92242553717083 -1.70268680549526
181   2.74165530449591  -1.6966446511095
182   2.56085973787841 -1.69225362905191
183   2.37993005461649 -1.68931576095577
184   2.19878083921009 -1.68762732620246
185   2.01734834737042 -1.68698376446519
186   1.83558866377635 -1.68718395756641
187   1.65347580583941 -1.68803391810402
188   1.47099983596268 -1.68934992694361
189   1.28816501962105 -1.69096116993242
190   1.10498804764968 -1.69271192732877
191  0.921496328164696 -1.69446336877948
192  0.737726345451986 -1.69609500337895
193  0.553722078623452 -1.69750582933619
194  0.369533470662493 -1.69861522174997
195  0.185214937725649 -1.69936359043142
196  0.000823908569488738 -1.69971283293113
197  -0.183580615708878  -1.6996466011069
198  -0.367939491063096 -1.69917039279552
199  -0.552194858203601 -1.69831147344533
200  -0.736291577710746 -1.69711862590647
201  -0.920178681733496 -1.69566171992668
202  -1.10381085166082 -1.69403108623222
203  -1.28714993135817 -1.69233667339003
204  -1.47016648553761 -1.69070695900552
205  -1.65284141220953 -1.68928758035109
206  -1.83516761638483 -1.68823964349668
207  -2.01715174846085 -1.68773766482438
208  -2.19881600398032  -1.6879670950337
209  -2.38019997048528 -1.68912137417165
210  -2.56136249084902 -1.69139846786018
211  -2.74238349019097 -1.69499684092626
212   -2.9233656860733 -1.70011083628313
213  -3.10443607234949 -1.70692544511518
214  -3.28574704223405 -1.71561047939224
215   -3.4674770054869 -1.72631418836227
216  -3.64983036880969 -1.73915639403298
217  -3.83303679509706 -1.75422125195473
218   -4.0173497343388 -1.77154976671142
219  -4.20304431142219  -1.7911321999851
220   -4.3904147361841 -1.81290049755083
221  -4.57977143748287 -1.83672082721493
222  -4.77143809380496 -1.86238626326572
223  -4.96574863533268 -1.88960957931876
224  -5.16304414363569 -1.91801602898602
225  -5.36366940271398 -1.94713591306813
226  -5.56796868322267 -1.97639666363782
227  -5.77628018080271  -2.0051141298134
228  -5.98892837306913 -2.03248273941274
229   -6.2062133884837 -2.05756425416839
230  -6.42839627044503 -2.07927496696867
231  -6.65567875640076 -2.09637146189609
232  -6.88817588528337 -2.10743554994081
233  -7.12587945609737 -2.11085980028322
234  -7.36861021903184 -2.10483629381338
235  -7.61595691121155 -2.08735284706458
236   -7.8672011385967 -2.05620282915437
237  -8.12122885332168 -2.00901630925992
238  -8.37643142043755 -1.94332047526252
239  -8.63059969925038 -1.85663367793552
240  -8.88080471786162 -1.74658500383518
241  -9.12321112147446 -1.61101889278754
242  -9.35261343108491 -1.44797914597417
243  -9.56124076163055 -1.25549730738405
244  -9.73806398541871 -1.03219810448336
245  -9.86958452825862 -0.777368175552075
246   -9.7388557672148 -0.479431475463066
247  -9.21305292310564 0.00592377715811922
248   -9.7366707927917 0.420069031637511
249  -10.0909647911741 0.992203205457083
250  -10.1441370491705  1.66121632570748
251  -9.87004862482713  2.27243755157012
252  -9.01108155921033    2.913839145542
253   -7.9400145105161    2.922005014861
254  -6.91837951696411   2.6373097814358
255  -5.93350668674303  2.31788838634164
256  -4.97606096275821   2.1363035742364
257  -4.00363074802754  2.13375043170413
258  -2.98790939236831  2.20679549601507
259  -1.99880011786845  2.23255457213573
260  -1.02251311531847  2.20828002903201
