// Id               X                Y
  1  -0.107267539360855  6.43133944322657
  2  0.976961046979628  6.40184669243089
  3   2.05073623293781  6.21615385207693
  4   3.07745171973956  5.88464281804738
  5    4.0224580559084  5.42712724369081
  6   4.86994471706439  4.81590099173407
  7   5.64001065850562   4.1680920118597
  8   6.41916123504044    3.602055881545
  9   7.24451043176186  3.09775071376139
 10   8.06173271571545  2.57166401191667
 11   8.76961785679861  1.80372690796555
 12   8.88479865823358  1.27032969978506
 13   8.73823818660637 0.754301403555897
 14   8.33519544083758 0.408098565182498
 15   7.80953418282297 0.356260036074457
 16   7.19687747525018 0.727947339082565
 17    6.9696976347671 0.975274981357031
 18   6.90281779533459  1.06239770981267
 19   6.84330791810775  1.14627175689813
 20    6.7862761015769  1.23265375316331
 21   6.73133946837491  1.32141679293699
 22    6.6781189014981  1.41285810908935
 23    6.6259690970939  1.50746847315371
 24   6.57452127325844  1.60563871279358
 25   6.52342537284995  1.70750378562336
 26   6.47242891970669  1.81310619402256
 27   6.42123943262215  1.92241082233238
 28   6.36955080696165  2.03536372511219
 29   6.31700967865897  2.15189849083775
 30   6.26322054525668  2.27195002808241
 31   6.20773878780506  2.39545810743128
 32   6.15006898948939  2.52237213134659
 33   6.08965991148415  2.65265529788928
 34   6.02589741320768  2.78629079354383
 35   5.95809212294578   2.9232916163738
 36   5.88545844893843  3.06371811258036
 37   5.80707635791349  3.20771191758786
 38   5.72181390637591  3.35557155644709
 39   5.62813016697433  3.50796763912415
 40   5.52330398962247  3.66687235841278
 41   5.40196006152897   3.8369181682828
 42   5.26561258063209  4.01218577080926
 43   5.11619048279545  4.18750017314124
 44    4.9545524618075  4.36009380321657
 45   4.78147740016417  4.52797483053418
 46   4.59782127133436  4.68961231336576
 47   4.40452866820944  4.84383396481396
 48   4.20260735632959  4.98977266240482
 49   3.99309340475868  5.12682607616141
 50   3.77701732406593  5.25461971587642
 51   3.55537571096085  5.37297111627843
 52   3.32910992037367  5.48185534850792
 53   3.09909159723748  5.58137271439382
 54   2.86611401889717  5.67171941350329
 55   2.63088785438828  5.75316165376255
 56   2.39403992625825  5.82601333459238
 57   2.15611370673099  5.89061715850342
 58   1.91757049815906  5.94732884006942
 59   1.67879050219492  5.99650396501818
 60   1.44007328546909  6.03848698559746
 61   1.20163754691859  6.07360180913063
 62  0.963620633135465  6.10214345027548
 63  0.726078933243496  6.12437030003527
 64  0.488990979790104  6.14049675343154
 65  0.252265451637559  6.15068625038813
 66  0.0157558534765841  6.15504516834159
 67  -0.220717843175444  6.15361830869703
 68  -0.457342530904163  6.14638674747355
 69  -0.69428411421783  6.13326848370667
 70  -0.931662804656073  6.11412175365418
 71   -1.1695346415311  6.08875038631421
 72  -1.40788009774049  6.05691040468884
 73   -1.6465986465929  6.01831725563055
 74  -1.88550717373161  5.97265341927116
 75   -2.1243401277944  5.91957651629465
 76  -2.36274988929672  5.85872829081479
 77  -2.60030656653995    5.789744984739
 78  -2.83649706148909  5.71226966834767
 79  -3.07072372949802  5.62596708495411
 80  -3.30230331860463  5.53054151970675
 81  -3.53046716933909  5.42575810759348
 82  -3.75436391389247  5.31146783280092
 83  -3.97306611850844  5.18763621844221
 84  -4.18558239067112  5.05437536076697
 85  -4.39087628216314  4.91197858198763
 86  -4.58789265775771  4.76095673260362
 87  -4.77559081529925  4.60207544298476
 88  -4.95298117984529   4.4363941878539
 89  -5.11915790211723   4.2653128834047
 90  -5.27330887084261  4.09064730593621
 91  -5.41464264071254  3.91482088666512
 92  -5.54190450113827  3.74169025366962
 93  -5.65212213442249  3.57885778712073
 94  -5.74922564417397  3.42435555017092
 95  -5.83706753439481  3.27488944346857
 96  -5.91748266873168  3.12949141972549
 97  -5.99172960177951  2.98775997258321
 98  -6.06080158407837  2.84950582676563
 99  -6.12553360491616  2.71464318216569
100  -6.18665173255164  2.58314436624016
101  -6.24479949340149  2.45501738704973
102  -6.30055281136682  2.33029349618143
103  -6.35442917831427   2.2090198141908
104  -6.40689270801863  2.09125394466839
105  -6.45835845534782  1.97705963182284
106  -6.50919505426793  1.86650071591049
107  -6.55973051386818  1.75963214657181
108  -6.61026175542837  1.65648225121554
109  -6.66107640474779  1.55701861447253
110  -6.71249799572064  1.46108506048042
111  -6.76495959323294  1.36831611286831
112  -6.81903873002741  1.27816126570414
113  -6.87521100416928  1.19035619882241
114  -6.93380110244066  1.10495229311947
115  -6.99974670509932  1.01605397148157
116  -7.22240658906463 0.764285524990557
117  -7.82597087567056 0.377465141611403
118  -8.35173715946542 0.412362727885993
119  -8.76537739085148 0.742787274079531
120  -8.92892069308703  1.25110220276071
121  -8.82966304732966  1.78497489483496
122  -8.14064238513259  2.55792813544592
123   -7.3444963274969  3.07561375345012
124  -6.54045318669605  3.56476601690772
125  -5.77738440032632  4.11282508195548
126  -5.05195514844585  4.71959756625793
127  -4.22631134698866  5.35159775581365
128  -3.29114382969868  5.83033389086946
129   -2.2889520882902  6.17038102674398
130  -1.20124434454659  6.32361260370663
131  0.0203635061678599  7.00154566400344
132   1.11637446291249  6.96836994368555
133   2.19446043904876  6.78172749198831
134   3.23552152674887  6.44737995999478
135   4.22270136724373  5.97559610183027
136   5.11958207598092  5.34731652491246
137   5.97178748816423  4.65975356364291
138   6.85857915906611  4.01948833470646
139   7.76897967846719  3.41280586932546
140   8.64366347970415  2.74985829218152
141   9.27374437909797  1.85090672994591
142   9.42443196668283  1.21088288044268
143   9.25553884876425 0.583606693832118
144   8.81504191553201 0.0992746839171946
145   8.25094321527674 -0.225234513837361
146   8.44825569783232 -0.908747160938421
147   8.41683825016039 -1.44891521793343
148   8.12623674914862 -1.59787224796429
149   7.81460741105489 -1.66770686333844
150   7.50225838386577 -1.69171969584149
151   7.19365448628351 -1.67434064805573
152   6.89259247131267 -1.62107747134724
153   6.60215320442342  -1.5385505900405
154   6.32430429258632 -1.43214283531992
155   6.06019394453879 -1.30596450319974
156   5.81041294639812 -1.16335083871717
157   5.57513483078841 -1.00718866764868
158   5.35419729276689 -0.840065799171253
159   5.14716276567539 -0.664329926653336
160   4.95337168094966 -0.482111530664291
161   4.77199209260136 -0.295336057726635
162   4.60206648343113 -0.105735650837082
163   4.44255617750302  0.08513592714073
164   4.29238445879093 0.275884162877284
165   4.15048081155834 0.465250139360391
166   4.01583097579575 0.652081248932104
167   3.88754206221612 0.835291036213826
168   3.76494368465691  1.01378581529543
169   3.64779194206173  1.18625349009484
170   3.53694831995341  1.35017473037579
171   3.43536850026923  1.49977614159547
172   3.33873883386693  1.63795131683541
173   3.24313067335637  1.76729460542983
174   3.14648780670394  1.88859953640698
175   3.04748630110805  2.00235648964056
176    2.9452199873063  2.10899112542285
177   2.83905388197853  2.20889961444321
178   2.72854251215604  2.30244470784969
179   2.61338214421936  2.38994745963112
180   2.49338153357804  2.47168283990303
181   2.36844232160376  2.54788019704554
182   2.23854417322555  2.61872727882351
183    2.1037323352946  2.68437607069154
184   1.96410683838657  2.74494899888965
185   1.81981333114322  2.80054456855624
186   1.67103580530271  2.85124199804807
187   1.51799147795338  2.89710476510596
188   1.36092799982676  2.93818319006483
189   1.20012302334458  2.97451628032771
190   1.03588599225737  3.00613309121505
191  0.868561763605477  3.03305385424968
192  0.698535290276839    3.055291101566
193  0.526236070880968  3.07285097179919
194   0.35214052816195  3.08573479998137
195  0.176770207163134  3.09394095371602
196  0.000684108565962424  3.09746669443926
197  -0.175535158471654  3.09630968741841
198  -0.351299709545677  3.09046876278147
199  -0.526035783866904  3.07994369874321
200  -0.699200346641083  3.06473409091803
201  -0.870292156030075  3.04483762785103
202   -1.0388565589201  3.02024818065035
203  -1.20448508892983  2.99095402390103
204  -1.36681187646765   2.9569363256454
205  -1.52550893400635  2.91816787398208
206  -1.68028193178183  2.87461189174534
207  -1.83086751797974  2.82622072437196
208  -1.97703277366632   2.7729341489786
209   -2.1185770710278  2.71467703446664
210  -2.25533638459687  2.65135609264791
211  -2.38718993647837  2.58285552823196
212  -2.51406891725957  2.50903156478444
213  -2.63596695598898  2.42970613931072
214  -2.75295214329628  2.34466053656019
215  -2.86518096257313  2.25363031309608
216  -2.97291573927424  2.15630333370853
217  -3.07654945794872  2.05232268767407
218  -3.17664527995526  1.94129487697635
219  -3.27400342334877  1.82279896417704
220   -3.3697784418388  1.69637651092398
221  -3.46570667564841  1.56141426722681
222  -3.56475225027918  1.41641384381706
223  -3.67249587517784   1.2568958419792
224  -3.78773861709748  1.08674198225344
225   -3.9086492911639 0.909853973474859
226  -4.03520562300812  0.72779674601087
227  -4.16796568121494 0.541720239681484
228   -4.3077695304014 0.352719150260679
229  -4.45561164394155 0.161937270340891
230  -4.61256483363906 -0.0293835587450259
231  -4.77972486294927 -0.219870422187699
232  -4.95816342767388 -0.407993134732509
233  -5.14888347331379 -0.59204278879644
234  -5.35277373837399 -0.770114479473019
235  -5.57056103192648 -0.940093135396479
236  -5.80275961828769 -1.09963881897189
237  -6.04961699228415 -1.24616126106212
238  -6.31105282250194 -1.37675838768643
239   -6.5865784103288  -1.4880645400124
240  -6.87515981756775 -1.57592269375026
241  -7.17496286147707 -1.63488982225553
242  -7.48306203857598 -1.65828094120634
243   -7.7958039070011  -1.6405202940213
244  -8.10883644523375 -1.57704996428861
245  -8.40248186690962 -1.43419555956275
246  -8.44462673877296 -0.895276867868067
247  -8.26301997059447 -0.207574529369255
248  -8.83782948127961 0.107663877655428
249  -9.28803487728424 0.589367964478281
250  -9.46872976130076  1.21769585245555
251  -9.31676061985418  1.85946372068251
252  -8.69957120072984  2.76786317373537
253   -7.8312168708292   3.4407825672731
254  -6.91213093831366  4.03941133419122
255  -6.01606021332353  4.67230497663167
256  -5.13105120315226  5.32563338666122
257  -4.22008143987101  5.94978318619488
258  -3.21979264026449  6.41840711903255
259  -2.16403983045372  6.74225692773669
260  -1.07447902762932  6.89894557150436
