// Id               X                Y
  1  -0.0692675921899391  1.09465337001802
  2  0.898435924366241  1.11517810132113
  3   1.88267462896128  1.17877644364819
  4   2.89787353136593  1.26216071118508
  5    3.9442533181923  1.32185638900413
  6   4.92622586080065  1.39404943198361
  7   5.91288299136989   1.5321800456513
  8   6.87750121103179   1.6783269119889
  9   7.83031319793283  1.69787688975556
 10   8.72458440066329  1.39150123469937
 11   9.24854737816637 0.602366453246258
 12   9.15962424486599 0.0635771769748536
 13   8.79675229286911 -0.34189622294061
 14   8.27349259592673 -0.504291719430446
 15    7.7546128896731 -0.413906109105807
 16   7.16244816858495 0.0166378579875782
 17   6.50465326321118 0.590061297228747
 18   6.44388604076274 0.623429273155625
 19   6.38874599578412 0.651684038656589
 20   6.32277660904534 0.683215088562889
 21   6.24369523850091 0.718048071646545
 22   6.15340216351278 0.754300150617024
 23   6.05368796748877 0.790448216683771
 24   5.94589458414789 0.825442149654099
 25   5.83109735223161 0.858550025224138
 26   5.71024048107697 0.889258117992119
 27   5.58419065032897 0.917215855790176
 28   5.45374530461162 0.942203234921457
 29   5.31962476055058 0.964106274417075
 30   5.18246428020029 0.982895520717844
 31    5.0428123123971 0.998606802479711
 32   4.90113527429808  1.01132473924062
 33   4.75782671347563  1.02116940794996
 34   4.61321827117353  1.02828610268784
 35   4.46759045811883  1.03283774941884
 36   4.32118209836689  1.03499937910861
 37   4.17419800788153  1.03495407709309
 38   4.02681493420902  1.03288993243707
 39   3.87918601382598  1.02899764164885
 40   3.73144407519735  1.02346853865301
 41    3.5837040982531  1.01649291283755
 42   3.43606508586879  1.00825853854802
 43   3.28861154030356 0.998949377832546
 44   3.14141468188737 0.988744440057663
 45   2.99453350327213 0.977816792854519
 46   2.84801572006332 0.966332722901158
 47   2.70189865558549 0.954451045153704
 48   2.55621008160654 0.942322557179536
 49   2.41096902612114  0.93008963242303
 50   2.26618655231914 0.917885943309413
 51   2.12186650859263 0.905836302524175
 52   1.97800624709996  0.89405660884136
 53   1.83459730743868 0.882653882611014
 54   1.69162606194661 0.871726375446679
 55   1.54907431971685 0.861363738703948
 56    1.4069198873246 0.851647235899546
 57   1.26513708533415 0.842649985161774
 58   1.12369722075025 0.834437219004545
 59  0.982569016612952 0.827066550068336
 60  0.841719000857618 0.820588232880753
 61   0.70111185734722 0.815045413086251
 62  0.560710742627068 0.810474356928761
 63  0.420477572461115  0.80690465501096
 64  0.280373282598113 0.804359395484201
 65  0.140358068504487 0.802855302841271
 66  0.000391609008064764 0.802402839397999
 67  -0.139566721059968 0.803006267374923
 68  -0.27955764404353 0.804663670247961
 69  -0.41962177322436 0.807366932752307
 70  -0.559799401911482 0.811101679624018
 71  -0.700130282611499  0.81584717387727
 72  -0.840653391082887 0.821576176170347
 73  -0.981406670173525 0.828254767636782
 74  -1.12242674849777 0.835842139473456
 75  -1.26374862924521 0.844290353604039
 76  -1.40540534474801 0.853544079885858
 77  -1.54742757288781 0.863540316603767
 78   -1.6898432120154 0.874208102385703
 79  -1.83267691179775  0.88546822915526
 80  -1.97594955829872 0.897232967261821
 81  -2.11967771262458 0.909405815431653
 82  -2.26387300357912 0.921881289574082
 83   -2.4085414758991 0.934544765643849
 84  -2.55368289665416 0.947272392574784
 85  -2.69929002311797 0.959931091624173
 86  -2.84534783560154 0.972378658172048
 87  -2.99183273805386  0.98446398100563
 88  -3.13871172724921 0.996027392347071
 89  -3.28594152752171  1.00690115941145
 90   -3.4334676815145  1.01691012531691
 91  -3.58122357722578  1.02587250412311
 92  -3.72912937628549  1.03360083235914
 93  -3.87709078587674  1.03990307876838
 94  -4.02499758453389  1.04458391696293
 95  -4.17272176772568  1.04744617506615
 96  -4.32011512164369  1.04829249645307
 97  -4.46700596636044  1.04692728226341
 98  -4.61319474519332  1.04315904662978
 99  -4.75844810417419  1.03680340612026
100  -4.90249115415804  1.02768704726628
101  -5.04499781047189   1.0156531588058
102  -5.18557953984426  1.00056894359284
103  -5.32377355062654 0.982335873260001
104  -5.45903234669161 0.960903229418536
105    -5.590717266804 0.936285130765549
106  -5.71809839479863 0.908580768952344
107  -5.84036090069582 0.877997409222175
108  -5.95661215447646 0.844876869235672
109  -6.06587392470247 0.809730342664859
110  -6.16703046818084 0.773295315994764
111  -6.25869635191738 0.736639218231543
112  -6.33903473859511 0.701311533306379
113  -6.40610484337654 0.669250272875273
114  -6.46215683915379 0.640462283737726
115  -6.52372788241368 0.606530843770347
116  -7.17934333327005 0.0301745177793469
117  -7.76830600530851 -0.404822893191367
118  -8.28614742140477 -0.501767633711955
119  -8.81231052725582 -0.349006783637676
120  -9.18468076820804 0.0473279195386525
121  -9.28859377126311 0.582547778278137
122  -8.78955285479991  1.38467666864555
123  -7.90372272172711   1.7088958048803
124  -6.95405043808638  1.69926070762976
125  -5.99944277000811  1.55638109177073
126  -5.04097008092651  1.41732980269505
127  -4.08082424674042  1.33934379175406
128  -3.04349419862763  1.28051574402988
129  -2.02416948149701  1.19379670450316
130  -1.04222554281849  1.10773373164796
131  -0.0539528451072661  1.68825372435768
132   0.95167137645685  1.71462643800075
133    1.9679857543402  1.77043856047242
134   2.99332832531012  1.84630322913087
135   4.01910736617679  1.91155078021159
136   5.05495224245214  1.98998198315191
137    6.0977078889281  2.11699748125856
138   7.15895794647258  2.22544935385582
139   8.23738649579684  2.15581883464264
140   9.22420848212386  1.70208975973426
141   9.73656847704863 0.745621898170147
142   9.70266187517291 0.0596434701841942
143   9.31677615977548 -0.514215721488321
144   8.70379859236671 -0.847057725128475
145    8.0523183353153 -1.10517363951079
146   8.01200569504269 -1.84807921939521
147   7.91571383661373 -1.98837141183817
148   7.75661697884874 -2.07860858739675
149   7.57967153802873 -2.12404125711426
150   7.39929153857779 -2.14220410866424
151   7.22006398812581 -2.14409988165746
152   7.04315060701905 -2.13603593598562
153   6.86873433883328 -2.12180899466901
154   6.69669727301251  -2.1039322873227
155   6.52681643178219  -2.0842064908653
156   6.35883424615978 -2.06397603915545
157   6.19249274832033 -2.04425019830844
158    6.0275529324347 -2.02577080585633
159   5.86380479249726 -2.00906076584091
160   5.70107052752383  -1.9944653869456
161   5.53920309192038 -1.98218941591963
162    5.3780821132067 -1.97232951359343
163    5.2176087956038 -1.96490148983823
164   5.05770089708274 -1.95986209447399
165   4.89828837301508 -1.95712574158309
166   4.73930991072197 -1.95657692985454
167    4.5807103516247 -1.95807926827935
168   4.42243888503764  -1.9614819817589
169   4.26444786087476 -1.96662463409173
170   4.10669207305265 -1.97334063310212
171   3.94912838716964 -1.98145991805499
172   3.79171561143746 -1.99081109480565
173   3.63441453262366 -2.00122318529434
174   3.47718805712598  -2.0125270916905
175   3.32000141151829 -2.02455683448788
176    3.1628223679192  -2.0371506004441
177    3.0056214682432 -2.05015162398663
178   2.84837222845131  -2.0634089198756
179   2.69105130971582  -2.0767778824566
180   2.53363864817078 -2.09012076592497
181   2.37611753876238 -2.10330705966066
182   2.21847467173017 -2.11621377238745
183   2.06070012252565  -2.1287256384553
184   1.90278729759925 -2.14073525888167
185   1.74473283955691 -2.15214318893034
186   1.58653649580215 -2.16285798300026
187   1.42820095503784 -2.17279620649852
188   1.26973165599123 -2.18188242323355
189    1.1111365725278 -2.19004916573655
190  0.952425979000314 -2.19723689483675
191  0.793612199293795 -2.20339395380779
192  0.634709342617475 -2.20847652148399
193  0.475733028692985 -2.21244856792487
194  0.316700104616158  -2.2152818154825
195  0.157628355343975 -2.21695570749393
196  -0.00146379051211168  -2.2174573862678
197  -0.160557558113575 -2.21678168154646
198  -0.319634125712807 -2.21493111018589
199  -0.478674924606766 -2.21191588738625
200  -0.637661938477648 -2.20775394940857
201  -0.796578000808787 -2.20247098730632
202  -0.955407088931017  -2.1961004907667
203  -1.11413461305258 -2.18868380067542
204  -1.27274769835615 -2.18027016847269
205  -1.43123545791395 -2.17091681974115
206   -1.5895892537838 -2.16068901874543
207   -1.7478029432186 -2.14966012981828
208  -1.90587310646901 -2.13791167055737
209  -2.06379925221322  -2.1255333507637
210  -2.22158399624936 -2.11262308993091
211  -2.37923320878819 -2.09928700490929
212  -2.53675612555425 -2.08563935815515
213  -2.69416541802342 -2.07180245578297
214  -2.85147721858938 -2.05790648352222
215  -3.00871109736405 -2.04408926770456
216  -3.16588998878852 -2.03049594762932
217  -3.32304006837015 -2.01727854510877
218  -3.48019058277229 -2.00459541665561
219  -3.63737364026289 -1.99261057348448
220  -3.79462397327404 -1.98149285383934
221  -3.95197869066374 -1.97141493023112
222  -4.10947704441221 -1.96255212926885
223  -4.26716024430857 -1.95508103094486
224  -4.42507136533741 -1.94917779285458
225  -4.58325540692245 -1.94501610632805
226   -4.7417595820434 -1.94276462769865
227  -4.90063393819595 -1.94258363078569
228  -5.05993244013111  -1.9446204912452
229  -5.21971467113942 -1.94900344348007
230  -5.38004832291753 -1.95583286552894
231  -5.54101262077301  -1.9651691880636
232   -5.7027027363248 -1.97701645593262
233  -5.86523503229413 -1.99130067549735
234  -6.02875263085429 -2.00784242220695
235  -6.19343030385302 -2.02632373152822
236  -6.35947712768114 -2.04624977932115
237  -6.52713488509758 -2.06690548593399
238  -6.69666996447956 -2.08730419226008
239  -6.86835615258718 -2.10611644848201
240  -7.04244280562846 -2.12154493993592
241   -7.2190873469663 -2.13106331297824
242  -7.39816415098642 -2.13083760364005
243  -7.57859353423325 -2.11448262657059
244   -7.7558923732518 -2.07083911660317
245   -7.9157198908537  -1.9820899472976
246  -8.01295860395867 -1.84254632917776
247  -8.05786224498381 -1.09975472002852
248  -8.71246636329757 -0.850934682954961
249  -9.33096906355728 -0.529226563326439
250    -9.728685564031 0.0362715055874197
251  -9.77965991093545 0.721020619467255
252  -9.29216019554453  1.69006940417856
253  -8.31477989397781   2.1628737308936
254  -7.23735308555744  2.24535345545257
255  -6.17532815932602  2.14395015544142
256  -5.13179981889219  2.01966737222328
257  -4.09519577204376  1.93289349734821
258  -3.06990519671458  1.87025593839158
259   -2.0490183186953  1.78556123763215
260  -1.03167759601213  1.70403342659243
