// Id               X                Y
  1  -0.582510138394259  11.8411560970615
  2  0.491519510871553  11.8135567221098
  3   1.55780704090066  11.6142110628162
  4    2.5837083923876  11.2468946224412
  5   3.51303303676418  10.7062674595776
  6   4.30478058702987   9.9853993458957
  7   4.92426314217881  9.13822711479991
  8   5.49972526971227  8.26293126783057
  9   6.06950534738635  7.39237530480182
 10   6.56326274094102  6.53293047219454
 11   6.86788783089877  5.55352165658827
 12   6.79143523832106  5.01171422136322
 13   6.46487394033605  4.53546768367387
 14   5.85476547692165  4.35214274353023
 15   5.36334340210463  4.62105649630189
 16   5.16247735026055  5.31332955461466
 17   5.14376643836486  5.55302704978231
 18   5.13984315550385  5.72613098404066
 19   5.14142025751688  5.89170456127189
 20   5.14634498672138  6.05554062433037
 21   5.15321206777039  6.21886631322248
 22   5.16050097517323  6.38202090256577
 23   5.16715221367021  6.54509063138225
 24   5.17183427060193  6.70816110336704
 25   5.17378026999353   6.8713279745458
 26   5.17190231914392  7.03469136874775
 27   5.16565443249391  7.19830463311641
 28   5.15419258245285  7.36214608716937
 29   5.13711356886756   7.5261401493985
 30   5.11381136263441  7.69012596728762
 31   5.08399338246332    7.853918081474
 32   5.04727253596216  8.01726806785224
 33   5.00346188737454  8.17992595798544
 34   4.95235757478978  8.34160763424283
 35   4.89387571095418  8.50203865183281
 36   4.82795260472924  8.66093440945436
 37   4.75459440383535  8.81802454500445
 38   4.67383466197874  8.97304365223576
 39   4.58574515070907  9.12574196989342
 40   4.49041641761959  9.27588149356392
 41   4.38795441510707  9.42323933198983
 42   4.27846835358317  9.56760612863956
 43   4.16206155043218  9.70878758638212
 44   4.03881682293138  9.84660714083158
 45   3.90877267924075  9.98091675119796
 46   3.77186473067595  10.1116324923667
 47   3.62769185461886  10.2389000773684
 48   3.46882605275849  10.3682238351716
 49   3.30193606640886  10.4931053871848
 50   3.12884133799915  10.6119848783629
 51   2.95031845291737  10.7243375516282
 52   2.76695246876898  10.8298704180669
 53   2.57924739054489  10.9284013581774
 54   2.38765892226854  11.0198162102879
 55   2.19260751024585  11.1040476040258
 56   1.99448460949746  11.1810622622341
 57   1.79365622051532  11.2508523300368
 58   1.59046523279334  11.3134289073647
 59    1.3852332386458  11.3688169252022
 60   1.17826213321987   11.417050919474
 61  0.969835663929424  11.4581714553939
 62   0.76022102016043  11.4922220598285
 63   0.54967051724178  11.5192465787947
 64  0.338423408002732  11.5392869133617
 65  0.126707841671164    11.55238111063
 66  -0.0852570212350937  11.5585618021668
 67   -0.2972587402612   11.557854992824
 68  -0.509089186264604  11.5502792093781
 69  -0.720542017706694  11.5358450214661
 70  -0.931410077403732  11.5145549474098
 71  -1.14148275248439  11.4864037555091
 72  -1.35054334310682  11.4513791684955
 73   -1.5583664828113  11.4094629766524
 74  -1.76471564512959  11.3606325654825
 75  -1.96934075782481  11.3048628687027
 76   -2.1719759285608  11.2421287690235
 77  -2.37233726369464  11.1724079908605
 78  -2.57012073269116  11.0956845662215
 79  -2.76499998705002  11.0119530184715
 80  -2.95662396666191  10.9212235209792
 81  -3.14461397480908  10.8235285001164
 82   -3.3285595630651  10.7189315917573
 83  -3.50801171239052  10.6075408827543
 84    -3.682469318027   10.489531149448
 85  -3.85134611067038  10.3651892520208
 86   -4.0138592488154  10.2350435099598
 87  -4.16811395554126  10.1007806360101
 88  -4.30797718516418  9.96877943104409
 89   -4.4404203536646  9.83347529524594
 90  -4.56577055681444  9.69472786596092
 91  -4.68404815022706  9.55261899634694
 92  -4.79517629467091  9.40729542508284
 93  -4.89903473837859  9.25893467918334
 94  -4.99548276446862   9.1077352675236
 95  -5.08437320009959  8.95391405632442
 96  -5.16556353402084  8.79770591547874
 97   -5.2389261713013  8.63936371789258
 98  -5.30435850143082  8.47915773842637
 99   -5.3617929124745  8.31737388435355
100  -5.41120664105185  8.15431036065864
101  -5.45263124207897  7.99027243515315
102  -5.48616144269205  7.82556496304134
103  -5.51196315638911  7.66048230185741
104  -5.53028045761531  7.49529530879529
105  -5.54144140378483  7.33023547020042
106  -5.54586281352452  7.16547719440368
107  -5.54405461064327  7.00112137846111
108  -5.53662526113425  6.83718680461927
109  -5.52429082089804  6.67361919424914
110  -5.50788935190445  6.51032384816038
111  -5.48839619634724  6.34720273672048
112  -5.46692334427996  6.18412513210001
113  -5.44468199475782  6.02070511602149
114  -5.42290138803264  5.85559782538688
115  -5.40255823572181  5.68273406996047
116  -5.38208842176021  5.44391243911416
117  -5.41781821520257   4.7233358227277
118   -5.7330851716127  4.32802108827002
119  -6.22911640993109  4.19518381540641
120  -6.72015162747915  4.39516762466534
121  -7.04194205193633  4.86413584168016
122  -6.99231862888822  5.91344668622414
123  -6.62803988064357  6.82178358931768
124   -6.1387250673945  7.72164722760811
125  -5.62399286274374  8.61906139354459
126   -5.0869271194776  9.49280740765963
127  -4.41834294093477  10.2662661485752
128  -3.56672340924076  10.9017396873966
129  -2.60620004351074  11.3935071364387
130   -1.6008845896484  11.6602808038648
131  -0.188680918132151  12.2897796971394
132  0.939805456471657  12.2217033641899
133   2.04089636919101  11.9634915549084
134   3.08876005951229  11.5398993190456
135   4.04361675629473  10.9394934720578
136   4.85499070460667  10.1617343593501
137   5.50482025850044   9.2489653182009
138   6.10809723306883  8.30615641087503
139   6.68126574202708  7.34339859821607
140   7.13704813504665  6.31538228499562
141   7.24121377553074  5.19189979074329
142   6.98144934052418  4.51013092238447
143   6.44773067965094  4.01892734920172
144   5.75309583906722  3.84450336285106
145    5.0504786758651  3.94964587336924
146   4.56174231899293  3.38033358945041
147   4.26572009864851  3.24564033539817
148   4.02001591648645  3.31113822038994
149   3.81772239256832  3.44759745945631
150   3.64335188969859  3.61208361905345
151   3.49034596193143   3.7902473657926
152   3.35607896296952  3.97701025801411
153   3.23923354981551  4.17029405861271
154   3.13839337302074  4.36847910533548
155   3.05156581278463   4.5696278769579
156   2.97630698860963  4.77157558745123
157   2.91005470900327  4.97223540057676
158   2.85040408227584  5.16981334877388
159   2.79525810652382  5.36287983147667
160   2.74287273563187  5.55035559534574
161   2.69184523646596  5.73146185849246
162   2.64107564117976   5.9056680884256
163   2.58972143619097  6.07264592198699
164   2.53715192080176  6.23223235101673
165   2.48290649717231   6.3843986234906
166   2.42665757041504   6.5292231535047
167   2.36817915505697  6.66686640602953
168   2.30732126889423  6.79754767108445
169   2.24399020256037  6.92152385508397
170   2.17813423731074  7.03907085837326
171   2.10973435870966  7.15046775807935
172   2.03879960014007  7.25598366370246
173   1.96536723218989  7.35586642574862
174   1.88950943366536  7.45033111193603
175   1.81135227507381  7.53954251410125
176   1.73112927524832  7.62357139569009
177   1.64940049849819  7.70220581655323
178    1.5733627405987  7.76931122803552
179   1.49671004673359  7.83111042922845
180   1.41802575668563  7.88895801712971
181   1.33697642307283  7.94321261229361
182   1.25344703800723  7.99403523868595
183   1.16741993436013  8.04150474143641
184   1.07893467400119  8.08565653429258
185  0.988069701666342  8.12650038737919
186  0.894932192335733   8.1640302257079
187  0.799651673047047  8.19823019750327
188  0.702375650195813  8.22907873236218
189  0.603266423324332  8.25655139599755
190  0.502498658848055  8.28062296786874
191  0.400257476714415  8.30126898988025
192  0.296736891915571  8.31846694181846
193   0.19213850006654  8.33219714611597
194  0.0866703235746891  8.34244347096701
195  -0.0194542472906208  8.34919387762908
196  -0.126017470498658  8.35244084062358
197  -0.232798265406552  8.35218165649839
198  -0.339573251006303  8.34841864696615
199  -0.446117826018084  8.34115925516686
200  -0.552207297868247  8.33041602912017
201  -0.657618061003296  8.31620648346882
202  -0.762128823016417   8.2985528283355
203  -0.865521880685934  8.27748155115395
204  -0.967584457514482   8.2530228321233
205  -1.06811012944433  8.22520976479589
206   -1.1669003858982  8.19407733833889
207  -1.26376640000059  8.15966111455277
208  -1.35853111820562  8.12199549612048
209  -1.45103183438163  8.08111142337011
210  -1.54112350697049  8.03703323447777
211  -1.62868325776414  7.98977423041452
212  -1.71361687753749  7.93933007868408
213  -1.79586909911695  7.88566822036249
214  -1.87544202437476  7.82870875141398
215  -1.95243525538827  7.76828294877891
216  -2.02716780832463  7.70400924440072
217  -2.10110680387827  7.63438138768446
218  -2.18000376699607  7.55327759807012
219  -2.25708718977488  7.46682415156863
220  -2.33183456112153  7.37519017855926
221  -2.40401761258513  7.27826741542829
222  -2.47350673220902  7.17584862618212
223  -2.54022233110931  7.06766996378452
224  -2.60411791376431  6.95342877550564
225  -2.66517511952974  6.83279651346471
226   -2.7234058953327  6.70543257205609
227  -2.77886092921491  6.57100139014596
228  -2.83164496762712  6.42919387411705
229  -2.88194028763731  6.27975343894753
230  -2.93003972061343  6.12250636512868
231  -2.97639025304832  5.95739584347208
232  -3.02164738942978  5.78451934563579
233    -3.066739168701    5.604169954448
234   -3.1129366128365  5.41688339614898
235  -3.16192305595343  5.22349179216263
236  -3.21584550184671  5.02517902447936
237  -3.27731421723448  4.82351651126164
238  -3.34929592400832  4.62043129850296
239  -3.43484615594903  4.41804071938991
240  -3.53670700381715  4.21834949452527
241  -3.65701263254499  4.02304873972877
242  -3.79761050891535  3.83406243666964
243  -3.96153784497511  3.65585559700969
244  -4.15604956914427  3.50140161075871
245  -4.39831782071497  3.41011548778456
246  -4.70566279041464  3.50485397634764
247  -5.26183632522458  4.00132821065371
248   -5.9724390558458  3.82632779815392
249  -6.69766717722504  3.94061840532557
250   -7.2513987390159  4.41751972775359
251  -7.47197484142117  5.11016722728814
252  -7.47807542852097  6.23466841278597
253  -7.02452608172455   7.2578870028332
254  -6.47094382240417  8.23010993287575
255   -5.8747435082216  9.17881279513857
256  -5.21230526671895  10.0879777805757
257  -4.40118774233893  10.8730686675504
258  -3.45914591449097  11.4992123668989
259   -2.4209615970734  11.9503069860328
260  -1.31157072471056  12.1744879826299
