// Id               X                Y
  1  -0.070059030410678 0.153375175823653
  2  0.856265231064699 0.153453632818275
  3   1.77959468944279 0.132271041210338
  4   2.70906746870074 0.160636484254518
  5   3.62507214232523 0.310577704887122
  6   4.49089125971299 0.636537897694888
  7   5.28201768166894  1.10233785190381
  8   6.02087042205304  1.63178721545119
  9   6.77904969825521   2.1246831091775
 10   7.64093876119946  2.40261744519465
 11      8.51438504156    2.156515537486
 12   8.78499765115312   1.7310429300523
 13   8.79183251436827   1.2268436194698
 14   8.54299174349396 0.781039079991133
 15   8.11438201784454 0.476641937931807
 16   7.56039327601012 0.325134391526749
 17   7.15527181358757 0.283308357231444
 18   7.15496064558372 0.283286253658697
 19   6.95682405107462 0.272309452971354
 20   6.74608615221304  0.26455778941734
 21   6.54750398080527 0.258580606932905
 22   6.36681302057631 0.252752330758618
 23    6.2057276007372 0.246388817377467
 24   6.04914965496051 0.238636545861688
 25   5.89240052587973 0.228988066379288
 26   5.73739720014806 0.217390385403554
 27   5.58456236064791 0.203879558420476
 28   5.43397494119866 0.188582853706683
 29   5.28557153923557 0.171693935759894
 30   5.13920065016827 0.153448041375479
 31   4.99464654720227 0.134101809490456
 32   4.85164666104546 0.113918660716268
 33   4.70991201971079 0.0931599724506347
 34   4.56914470845782 0.0720800968821103
 35    4.4290570382538 0.0509245756361157
 36   4.28939589940622 0.0299308418251198
 37   4.14997002857667 0.00932978257641511
 38   4.01067043972464 -0.0106544863745816
 39   3.87137838918628 -0.0298215101534956
 40   3.73177207972982 -0.0480207697462529
 41   3.59151731203054 -0.0651212546935113
 42   3.45041900405047 -0.0809931132743306
 43   3.30839060113231 -0.0955167869091667
 44   3.16541709573057 -0.108592215914458
 45    3.0215350823035 -0.120144810751231
 46   2.87682138934516 -0.130129335235584
 47   2.73138396043477 -0.138532321266186
 48   2.58535446876564 -0.145372993480312
 49   2.43888177767689 -0.150702760554518
 50   2.29212394626027 -0.154603379820575
 51   2.14524088615774 -0.15718376787419
 52   1.99839069493853 -0.158575682101445
 53   1.85172461109135 -0.158928712590429
 54   1.70538173542815 -0.158404787603171
 55    1.5594890824599 -0.157172550744043
 56   1.41416229344104 -0.155401977983769
 57   1.26949888105974 -0.153259285797593
 58    1.1255805145589 -0.15090248808524
 59  0.982468172257527 -0.148477574985575
 60   0.84018972757385 -0.146115354541091
 61  0.698729633193642 -0.14392927042008
 62  0.558027497194506 -0.142014364817348
 63  0.417961918658423 -0.140446953713554
 64  0.278379985379869 -0.139285545153175
 65  0.139114402426754 -0.138571579498553
 66  -1.90650428600485e-07 -0.138329907122057
 67  -0.139114625118582 -0.138568868197693
 68  -0.278379944981691 -0.139280190894849
 69  -0.417961559872436 -0.140439097793033
 70  -0.558026758502014 -0.142004228543423
 71  -0.698728679764491 -0.143917169347066
 72  -0.840188594899072 -0.146101708140569
 73  -0.982466824834978 -0.148462922797935
 74  -1.12557903511516 -0.150887509723836
 75  -1.26949722067815 -0.153244813207369
 76   -1.4141604053004 -0.155389012590206
 77  -1.55948707415571 -0.15716227674539
 78  -1.70537968321926 -0.158398574696031
 79  -1.85172262068149 -0.158928115004723
 80  -1.99838904321287 -0.158582426422747
 81  -2.14523993409054 -0.157199726716487
 82  -2.29212411649503 -0.154630532650607
 83  -2.43888364823636 -0.15074313656457
 84  -2.58535877516441 -0.145428597431981
 85  -2.73139153509171 -0.138605045431139
 86  -2.87683314121457 -0.130220856157129
 87  -3.02155201133838 -0.120256470259932
 88  -3.16544026935854 -0.108724891812813
 89  -3.30842104887423 -0.0956707621206731
 90  -3.45045764799385 -0.0811679380197388
 91  -3.59156500016762 -0.0653155921496101
 92  -3.73182955183673 -0.0482322404012783
 93  -3.87144619748463 -0.0300465319275541
 94  -4.01074906094697 -0.0108880628244573
 95  -4.15005994118822 0.00909432658213418
 96  -4.28949736485066 0.0297020977261328
 97  -4.42917006800189 0.0507132879573082
 98  -4.56926923933061 0.0718994449089457
 99  -4.71004788522795 0.0930258463410647
100  -4.85179359031588 0.113849958860342
101  -4.99480434954957 0.134120763422304
102    -5.139369298347 0.153580498361162
103  -5.28575106921874 0.171969555393314
104  -5.43416544358305 0.189035205603728
105  -5.58476389266062 0.204546031597101
106  -5.73760921944207 0.218311779730412
107  -5.89262154777589 0.230207767389258
108  -6.04937712742446 0.240198726621331
109  -6.20595583035786 0.248332690526339
110   -6.3670308883837 0.255126856027511
111  -6.54767414708308 0.261476506299364
112  -6.74616810314669 0.268058868780083
113  -6.95683157086564 0.276463789725653
114  -7.15536140680246 0.288059150460938
115   -7.1561381122779 0.288116597103155
116  -7.55635294307971 0.330360793803951
117  -8.10980666866307 0.480523376833612
118  -8.54081647126021 0.780507952761156
119  -8.79761918686807  1.22085352667552
120  -8.80510839407683   1.7236390517313
121  -8.55076485736616  2.15635887839634
122  -7.69005403351631  2.43193165448773
123  -6.82741255388453  2.16780157239964
124  -6.07559077437522  1.67318685602892
125  -5.35134789704289    1.135176984948
126  -4.57855669522263  0.65913885834576
127  -3.73161278137132   0.3240920360655
128  -2.83405730287024 0.166713863358693
129   -1.9243702390303 0.132142902070286
130  -0.995066651917907 0.116669634107925
131  -0.0260729415907285 0.753548833080283
132  0.871054696795669 0.762703371121448
133   1.76736618277675 0.743319562759591
134    2.6625311994768 0.771485187749069
135   3.54505149303926 0.921139979004144
136   4.38139710024526    1.244539871251
137   5.15521346827976  1.70737292321719
138   5.89518240774115  2.23428051264491
139   6.67168004181396  2.70971269150094
140   7.53636295932226  2.97795349241122
141   8.41157092745204  2.74897277444167
142   8.97481192836264  2.32175528940022
143   9.25783601011004  1.67775109721669
144   9.17855478863281 0.983746724435937
145   8.79868217406996 0.408882705011464
146   9.17023535104906 -0.0890771040781854
147   9.40003189979051 -0.602883653869236
148   9.29407379286784 -1.07120161514418
149     9.117870262719 -1.32927704887743
150   8.94181885392931 -1.53111748970551
151   8.77238277276681 -1.70944949801129
152   8.60334756470434 -1.87159857889401
153   8.42702083993979 -2.01917099793701
154    8.2483498330429 -2.14706897591255
155   8.07072106724379 -2.25740245512029
156   7.89377705200129 -2.35512267888794
157   7.71742153497098 -2.44344378917851
158    7.5413255162044 -2.52452786807234
159   7.36504049488814 -2.59986885349765
160   7.18811755814297 -2.67052912634264
161   7.01016024374809 -2.73726259012896
162   6.83083643162921 -2.80057930871448
163   6.64987348720514 -2.86079410481389
164   6.46705464139725 -2.91807301363797
165   6.28221344317923 -2.97247931062409
166   6.09521994655688 -3.02401462852193
167   5.90595806633446 -3.07264947139853
168   5.71430309433825 -3.11833927474467
169   5.52020543213784 -3.16101110275271
170   5.32388261497564 -3.20055094354749
171   5.12564847238178 -3.23688727403369
172   4.92576313100327  -3.2700311893756
173   4.72444752382011  -3.3000542531412
174   4.52190413946011 -3.32706437246208
175   4.31832472218954 -3.35119254029513
176   4.11389219428742 -3.37258746428504
177   3.90878108394316 -3.39141295472164
178   3.70315593030367 -3.40784532010663
179   3.49716849818912  -3.4220700511506
180   3.29095650725855 -3.43427809164939
181   3.08464227896755 -3.44466242858386
182   2.87832864171029 -3.45341518419454
183    2.6720973267792 -3.46072475824132
184   2.46600896049324 -3.46677322176555
185   2.26009925046967 -3.47173402969902
186   2.05437594022553 -3.47576950892904
187   1.84882456137238 -3.47902805861513
188   1.64340652306179  -3.4816415676418
189   1.43806542815779 -3.48372278580861
190   1.23274207206115 -3.48536382233869
191   1.02738847274889 -3.48663697444766
192  0.821973896636905 -3.48759801366716
193  0.616506072659074 -3.48829118764046
194  0.411006856396447 -3.48875373599904
195  0.205499783836906 -3.48901655511908
196  -1.91523378199302e-06 -3.48910126107398
197  -0.205503723715321 -3.48901578424252
198  -0.411010911171322 -3.48875218161228
199  -0.616510196410533 -3.48828884469158
200  -0.821978046428079 -3.48759490375193
201  -1.02739237659699 -3.48663316610909
202  -1.23274558536467 -3.48535943376876
203  -1.43806847719522 -3.48371797411218
204  -1.64340892273695 -3.48163652518197
205  -1.84882627350143 -3.47902300397649
206  -2.05437695452785  -3.4757646838876
207  -2.26009945322448 -3.47172970739797
208  -2.46600834156109 -3.46676970378871
209  -2.67209594419578 -3.46072237138934
210   -2.8783265092231  -3.4534142846115
211  -3.08463947963327 -3.44466339445396
212  -3.29095324003905 -3.43428131004265
213     -3.49716500677  -3.4220759112897
214  -3.70315251668877 -3.40785420072037
215  -3.90877817461258 -3.39142519734492
216  -4.11389035702902 -3.37260334033555
217  -4.31832463982015 -3.35121221627479
218  -4.52190661102506 -3.32708786172582
219  -4.72445353526056  -3.3000813393396
220  -4.92577388278815 -3.27006133707707
221  -5.12566530372639 -3.23691954786544
222  -5.32390699236361 -3.20058391194616
223  -5.52023898032381 -3.16104272995988
224  -5.71434744210922 -3.11836686968665
225  -5.90601471098873 -3.07266966187915
226  -6.09529037794844 -3.02402326612667
227   -6.2822990852458 -2.97247142390165
228  -6.46715658937329 -2.91804287463837
229  -6.64999240660259 -2.86073531414435
230  -6.83097238766212 -2.80048497191324
231  -7.01031232196168 -2.73712567003288
232  -7.18828352623489 -2.67034290093954
233  -7.36521654734076  -2.5996274444332
234  -7.54150585151838 -2.52422693455207
235  -7.71759789053205  -2.4430813062323
236  -7.89393844120355 -2.35469953099637
237  -8.07085322090669 -2.25692297749004
238  -8.24843511114433 -2.14654149871229
239  -8.42704274696566 -2.01860664650557
240  -8.60328296368956 -1.87102078305927
241  -8.77218193323105 -1.70890990847162
242   -8.9413999533345 -1.53069547203347
243  -9.11709981654045 -1.32911373867507
244  -9.29276746873789 -1.07166382670757
245  -9.39870707664033 -0.603098207319684
246  -9.16766332506001 -0.0879105004190397
247  -8.79443028023207 0.409874734367919
248  -9.17844398566231  0.98235627801754
249  -9.26496505865164  1.67631088246381
250  -8.99229243188654  2.32602412320422
251  -8.43593022274838   2.7636894746323
252   -7.5630616509908  3.00284975518553
253  -6.69640687938569  2.74580320001848
254  -5.92366577520534  2.26891377497448
255  -5.19316142172065   1.7323839466037
256  -4.42776773603926    1.258029447034
257  -3.59572703932539 0.924828830853409
258  -2.71401330251882 0.768249607596724
259  -1.81797619279986 0.733860538679907
260  -0.920841111880193 0.720800888927165
