// Id               X                Y
  1  -0.0760437672016644 -0.0682647191191864
  2  0.896964592478563 -0.0903017912710451
  3   1.80900568366517 0.048698383880421
  4   2.66360395023306 0.375829105642603
  5   3.45622994967287 0.806705919225795
  6   4.21363695977369   1.2731025732072
  7   4.96882992544979  1.72317076606703
  8   5.75461596195968  2.09982852390579
  9   6.58907291465848  2.33517186117214
 10   7.45509979569294  2.35995315843069
 11    8.2972418647983  2.11853421786577
 12   8.68698104281061  1.82519647184457
 13   8.96502416951891  1.38540178560536
 14   8.96657585488451 0.814313842923181
 15    8.5613405189719 0.427234569880911
 16   7.82110886290472 0.714209737779981
 17   7.14174380281449 0.944426478013374
 18   6.94874235585726 0.906801986720744
 19   6.77841077137692  0.83937586625523
 20   6.61015831792665 0.742908787454901
 21   6.45897563665749 0.634709965853418
 22   6.32446398271571 0.526691101352813
 23   6.20167910903258 0.423850696110354
 24   6.08189632714005  0.32418582390504
 25   5.95996189610947 0.226914333083244
 26   5.83429095594463 0.133427540840803
 27   5.70435552754277 0.0452045534011753
 28    5.5701010736556 -0.0366427744443026
 29    5.4318395361286 -0.111379562351685
 30   5.29012124413656 -0.178636553962469
 31   5.14559424435813 -0.238375260536983
 32   4.99889107220938 -0.290821328632723
 33     4.850557019397 -0.336381383543552
 34    4.7010221111576 -0.375560906607487
 35   4.55060714532017 -0.408896963414357
 36   4.39955537179289 -0.436911174129634
 37   4.24807591608555 -0.460084077913114
 38   4.09636663651269 -0.478849902223401
 39   3.94456123309359 -0.493606709269598
 40   3.79266117058333 -0.504722423667274
 41   3.64063103253635 -0.512527758138673
 42   3.48849333449227 -0.517322103168697
 43    3.3363274005933 -0.519387962694832
 44   3.18424014620485 -0.519000931207322
 45   3.03234535471162 -0.516433917039685
 46   2.88075318724524 -0.511957863901864
 47   2.72956530833387 -0.505840654932841
 48   2.57887333961814 -0.498345210356269
 49   2.42875887322465 -0.489727389809832
 50   2.27929310479743 -0.480233986169302
 51   2.13053725485579 -0.470101081925205
 52   1.98254442678699 -0.459552929464092
 53    1.8353598885649 -0.448801127516771
 54   1.68902090399004 -0.43804406535143
 55   1.54356043977454 -0.427466852476752
 56   1.39900779612987 -0.417241077877538
 57   1.25538566538173 -0.40752426594475
 58   1.11271116854239 -0.398459532759067
 59  0.970993106980876 -0.390174873461562
 60  0.830215083918162 -0.382781710422677
 61  0.690331345421436 -0.376374627014563
 62  0.551255335311195 -0.371031186691646
 63  0.412853030320346 -0.366812653094263
 64  0.274958556771897 -0.363765749836691
 65  0.137399125240951 -0.361923950782888
 66  -1.93910869843846e-07 -0.361307563324738
 67  -0.137399396674065 -0.361923512163164
 68  -0.274958479999699 -0.363764873613509
 69  -0.412852523758823 -0.366811345437694
 70  -0.55125449375427 -0.371029465208315
 71  -0.69033028599962 -0.376372519904232
 72  -0.830213963946883 -0.382779257770115
 73  -0.970992059314909 -0.390172124232452
 74  -1.11271023091947 -0.398456539096109
 75  -1.25538487951353 -0.40752108703669
 76  -1.39900720399188 -0.417237779186866
 77  -1.54356005038026 -0.427463502603367
 78  -1.68902075721128 -0.438040739750794
 79  -1.83536004813157 -0.448797907373795
 80  -1.98254494203143 -0.459549897903804
 81  -2.13053818820423 -0.470098325006725
 82  -2.27929454199562 -0.480231592398986
 83  -2.42876089886614 -0.489725447079817
 84  -2.57887604179216 -0.498343804994162
 85  -2.72956879079475 -0.505839870935836
 86   -2.8807575614812 -0.511957780743374
 87  -3.03235072916502 -0.516434607495187
 88  -3.18424662255316 -0.519002459592746
 89  -3.33633505861519 -0.519390383046024
 90  -3.48850220830248 -0.517325458377175
 91  -3.64064108898784 -0.512532080855152
 92  -3.79267230834202 -0.50472773823364
 93  -3.94457332068008 -0.493613031094572
 94  -4.09637958930442 -0.478857228792915
 95  -4.24808974311021 -0.460092372636007
 96  -4.39957011385296 -0.436920358874804
 97  -4.55062283538539 -0.408906914906323
 98  -4.70103875611873 -0.375571455457281
 99  -4.85057459375481 -0.336392316155013
100  -4.99890945769242 -0.290832413516253
101  -5.14561321295579 -0.238386282372576
102  -5.29014040135832 -0.17864738555074
103  -5.43185836731644 -0.11139022247471
104  -5.57011892857603 -0.0366535292962131
105  -5.70437171296077 0.0451931353692449
106  -5.83430472256687 0.133414486930895
107  -5.95997242727017 0.226898184068883
108  -6.08190241432504 0.324164359163316
109  -6.20167872414332 0.423820650776743
110  -6.32445462983741 0.526648707203057
111  -6.45895198861081 0.634649702158691
112  -6.61011435956838 0.742827561949177
113  -6.77834296780146 0.839277388893623
114  -6.94865402439867 0.906696414994632
115  -7.14164233584559 0.944323733009334
116  -7.82102065260002 0.714138344397996
117  -8.56126767320881  0.42720195907843
118  -8.96648062711228 0.814294561277411
119  -8.96491980990521  1.38535531313819
120  -8.68688212353822  1.82514301719462
121  -8.29715013213435  2.11848294897853
122  -7.45502392667485  2.35992962360631
123  -6.58901563905042  2.33521077552228
124  -5.75459844489002  2.09996024390726
125  -4.96892764731118  1.72353603728745
126  -4.21413150852265  1.27436568495731
127  -3.45918870137845 0.809787119576724
128  -2.67758016178874 0.377965623547922
129   -1.8498658379378 0.0374222842568461
130  -0.972703737728823 -0.121387422587833
131  0.00272104837741706 0.507913387279082
132  0.881103926574418 0.493863377037883
133   1.74414899275769 0.660325599765733
134   2.56387569319173  0.98798381057592
135   3.34462708160414  1.41774991508543
136   4.11588440702789  1.88631458644814
137   4.91221382602353  2.34099100594876
138   5.77132743940481  2.71861091574959
139   6.78075525548782  2.92244824803751
140   7.85168826804432  2.82450170304129
141   8.77978806934544  2.25119334379931
142    9.2004603506352  1.69506473716681
143   9.37366986364157  1.03657332641285
144    9.2897106652276  0.36397468299116
145   8.92942999687785 -0.314171765150675
146   8.96229728114153 -1.17892806059867
147   8.96229710547673 -1.17892832101874
148   8.91754230683619  -1.2381296457711
149    8.8328914756809 -1.33062896251057
150   8.71938513932072 -1.44205453435587
151   8.58685898434026  -1.5637033006468
152   8.44381812573473  -1.6894514724748
153    8.2945451017429 -1.81580348298615
154   8.14260276345805 -1.93858760856141
155   7.98936780024114  -2.0552978388303
156   7.83443740636384 -2.16520670387721
157   7.67701286916306 -2.26830268645959
158   7.51641218725915 -2.36484728691131
159   7.35222523853376 -2.45518127671845
160   7.18431703709432 -2.53964121935095
161   7.01274703227501 -2.61853990150439
162   6.83767345275771 -2.69216770592504
163   6.65928258421651  -2.7607949807619
164   6.47774820132931 -2.82467334550189
165   6.29321486281721 -2.88403679663117
166   6.10579698728151 -2.93910304280944
167   5.91559103055123 -2.99007364364417
168   5.72270452807252 -3.03713045260046
169    5.5273089981159 -3.08042696872721
170   5.32967604528488 -3.12008786653712
171   5.13012653779437 -3.15623158850124
172   4.92897242307716 -3.18898899182231
173   4.72649681818731 -3.21850800299502
174   4.52295106039416 -3.24495259106983
175   4.31855614972386 -3.26850027040484
176   4.11350560173213 -3.28933907002281
177   3.90796851995753 -3.30766427774645
178   3.70209207694287 -3.32367521766448
179   3.49600326905018 -3.33757220146153
180   3.28981025290388 -3.34955371106912
181   3.08360299590497 -3.35981393728701
182   2.87745320697905 -3.36854067652247
183   2.67141438882505  -3.3759134309186
184   2.46552174926153 -3.38210173533994
185   2.25979102765115 -3.38726375156342
186   2.05421877272368 -3.39154482634044
187   1.84878440793744 -3.39507607459089
188   1.64345196655272 -3.39797324405556
189   1.43817424399868 -3.40033575060039
190    1.2329025730977 -3.40224604116524
191       1.0275924947 -3.40377002932054
192  0.822212421133917 -3.40495828391152
193  0.616750714347843 -3.40584807383327
194  0.411213952913848 -3.40646589905627
195  0.205620514497598 -3.40682958642327
196  -1.30192772867843e-06 -3.40694950052432
197  -0.205623143622364 -3.40682908525909
198  -0.411216664776244  -3.4064648995529
199  -0.616753523114608 -3.40584658478425
200  -0.82221529205075  -3.4049563246829
201   -1.0275954045723 -3.40376763160368
202  -1.23290549307213 -3.40224324958728
203  -1.43817715533675 -3.40033262094887
204  -1.64345488252649 -3.39796984011475
205    -1.848787332835 -3.39507246826542
206  -2.05422170657333 -3.39154109714798
207  -2.25979398382799 -3.38725998536776
208  -2.46552473385086 -3.38209802560762
209   -2.6714174062021 -3.37590987837184
210  -2.87745627546284 -3.36853738705642
211  -3.08360613806114 -3.35981102168448
212  -3.28981349201031 -3.34955128431861
213  -3.49600663758962 -3.33757038031411
214  -3.70209561423486 -3.32367411900907
215  -3.90797226672134 -3.30766401743582
216  -4.11350960051945 -3.28933976063355
217   -4.3185604448235 -3.26850201856059
218   -4.5229556935665 -3.24495549517629
219  -4.72650182670542 -3.21851215053314
220  -4.92897783995915 -3.18899445635438
221  -5.13013239238469 -3.15623842728902
222   -5.3296823593036 -3.12009612056174
223   -5.5273157710201 -3.08043666724483
224  -5.72271171018871 -3.03714162293877
225  -5.91559850856627 -2.99008631905336
226  -6.10580461486662 -2.93911725625788
227  -6.29322248291224 -2.88405257363055
228  -6.47775565471856 -2.82469069922081
229   -6.6592897042191 -2.76081391115374
230  -6.83768007838856 -2.69218819151828
231     -7.01275300187 -2.61856189892835
232  -7.18432221113311 -2.53966465212929
233  -7.35222949198029 -2.45520604208863
234  -7.51641546382375 -2.36487323794852
235  -7.67701521475448 -2.26832962868866
236   -7.8344390711942 -2.16523434643609
237  -7.98936928362714 -2.05532575483183
238  -8.14260485667723  -1.9386151379491
239  -8.29454874685555 -1.81582967336154
240  -8.44382378957526 -1.68947532553586
241  -8.58686734928057  -1.5637229128518
242  -8.71939637588608 -1.44206814636211
243  -8.83290596817729 -1.33063626936662
244  -8.91755939853688 -1.23813265000332
245  -8.96231306429692 -1.17893124201284
246  -8.96231320559573 -1.17893103253212
247  -8.92939981030431 -0.314181427812497
248  -9.28965061162602 0.363976401821651
249  -9.37358738655596  1.03655194772009
250  -9.20036578676895   1.6950172692563
251   -8.7797027438799  2.25113600237616
252  -7.85163041945754  2.82446170913205
253  -6.78072578467607  2.92247642143742
254  -5.77142379178722  2.71873922983476
255  -4.91227074450348  2.34128604492291
256  -4.11534578504046  1.88711496248666
257  -3.34194607256969   1.4193513341459
258  -2.55852407851206 0.987115424343173
259  -1.73903030323955 0.645101770280272
260  -0.875027610729296 0.454415078877424
