// Id               X                Y
  1  -0.0746083469857347  2.16948140413006
  2  0.949590934869317  2.16553072693134
  3   2.00051485628066  2.14393216427703
  4   2.96629311957728  2.07219173948582
  5   3.88755416155131  1.93883094043713
  6   4.81074432927608  1.83836006460652
  7   5.73515516300816  1.89659563948976
  8   6.63882974063895  2.10788483763019
  9   7.53731579959511  2.34573474141827
 10   8.46516101921515  2.37836681930756
 11   9.26032997462893  1.90954716494632
 12   9.43212393482228  1.42017597602184
 13   9.32898017676486 0.911631166914713
 14   8.98557732660488 0.514525748072323
 15   8.48960865841723 0.297024544058348
 16   7.84611033156362 0.277218154556364
 17   7.03149599416122 0.498800858930874
 18   6.73581153472358 0.610544328782316
 19   6.71137618462033 0.620277703699811
 20   6.67927454694896  0.63317965128664
 21   6.62900280444638 0.653624556444244
 22   6.55812700514695 0.682902850516511
 23   6.46885440458509 0.720419331119405
 24   6.36462506823484 0.764918721594216
 25   6.24884160135227 0.814940392060262
 26   6.12426791277452 0.869090514974578
 27   5.99288793657045 0.926163612550295
 28   5.85605546293742 0.985140026532396
 29    5.7147125816594  1.04513925937895
 30   5.56955434887299  1.10538372469306
 31   5.42112487746097  1.16518310466157
 32   5.26987164843835  1.22392969598224
 33    5.1161807257261  1.28109623995451
 34   4.96040163331917  1.33623366283502
 35   4.80286313255655   1.3889690184993
 36   4.64388006928459  1.43900388618439
 37   4.48375267771302  1.48611271234534
 38   4.32276098548246   1.5301401827888
 39   4.16115809188982  1.57099672162677
 40   3.99916669541115  1.60865162630977
 41   3.83698167704346  1.64312428881985
 42   3.67477741194601  1.67447498800841
 43   3.51271522691614  1.70279683894967
 44   3.35094717821991   1.7282095026487
 45   3.18961564371968  1.75085421842596
 46    3.0288506384212  1.77088942225901
 47    2.8687670156633   1.7884865067964
 48   2.70946272491778  1.80382566110732
 49   2.55101829290274  1.81709192438423
 50   2.39349721273559  1.82847160203783
 51   2.23694687426987  1.83814913104227
 52   2.08139977675163  1.84630442006178
 53   1.92687487104456  1.85311065101773
 54   1.77337892434867  1.85873250907431
 55   1.62090774873209  1.86332479980962
 56   1.46944702748138  1.86703140729386
 57   1.31897240607136  1.86998454206728
 58   1.16944856774578  1.87230422636432
 59   1.02082726400842  1.87409796808371
 60  0.873044786699345  1.87546058506848
 61  0.726019921949918  1.87647415569508
 62  0.579653633554805  1.87720808243006
 63  0.433831248012133  1.87771925392227
 64  0.288426830778108    1.878052277911
 65  0.143308279106027  1.87823974132735
 66  -0.00165867038373998  1.87830244716637
 67  -0.146608539887484  1.87824958543211
 68  -0.291675848205087  1.87807881206471
 69  -0.436994846620782  1.87777622729939
 70  -0.582697616803476  1.87731626056345
 71  -0.728910075456127  1.87666148445442
 72  -0.87574691387307  1.87576239498477
 73  -1.02330727388028  1.87455720340203
 74  -1.17167262641424  1.87297168099599
 75  -1.32090715504606  1.87091908564077
 76  -1.47105986979438  1.86830018685756
 77  -1.62216720562886  1.86500340388726
 78  -1.77425506920272  1.86090507935353
 79  -1.92733985087364  1.85586992322851
 80   -2.0814284319327  1.84975167082284
 81  -2.23651746489977   1.8423940026044
 82  -2.39259225598404  1.83363177256768
 83  -2.54962550587096  1.82329258822211
 84  -2.70757604847494  1.81119878204107
 85  -2.86638766948137  1.79716980899777
 86  -3.02598813445414  1.78102508943395
 87   -3.1862886842474  1.76258728134811
 88  -3.34718440484622  1.74168590472017
 89  -3.50855586638074   1.7181611720773
 90  -3.67027193216745  1.69186788224006
 91  -3.83219253930033  1.66267942320684
 92  -3.99416911786837  1.63049232306311
 93  -4.15604049219429  1.59523211654352
 94  -4.31762464326337  1.55686104362708
 95  -4.47871030468432   1.5153870822555
 96   -4.6390533304173  1.47087280656096
 97   -4.7983794212034  1.42344260904144
 98  -4.95639040505139  1.37328782657086
 99  -5.11276958911691  1.32067023545162
100  -5.26718243031928  1.26592475321725
101   -5.4192700302434  1.20946215703993
102  -5.56863407628857  1.15177229643075
103  -5.71481240593741  1.09342782802554
104  -5.85724204449238  1.03508903623747
105  -5.99519780421198 0.977513651507165
106  -6.12768164292295 0.921580851142189
107  -6.25324131660262 0.868336327973914
108  -6.36975436159507 0.819039036324188
109   -6.4743331218213 0.775142224790106
110   -6.5635782631433  0.73812929779309
111  -6.63426371907779 0.709213205539783
112  -6.68445137959693 0.688942963322487
113  -6.71619209428621 0.676248953990278
114   -6.7455209878345 0.664612019644041
115  -7.06444101850004 0.544077005400996
116  -7.85998279487869 0.321084310305771
117  -8.50438121058605   0.3214452908251
118  -9.01124080701515 0.515496330276673
119  -9.37888098726656 0.891081281852721
120  -9.51750367617377  1.39132624426643
121   -9.3801810003858  1.89131302601685
122  -8.61378513370926  2.40254840734265
123  -7.68674957108572  2.39183626461695
124  -6.78997847835258  2.15144635113981
125  -5.89175017598224  1.92214118448332
126  -4.97057309953394  1.84084673276309
127  -4.04829721099161  1.92556883777555
128  -3.12990321716489  2.06245297644094
129  -2.17282941907449  2.13555578868669
130  -1.12227657978802   2.1335402391305
131  -0.074895249028171  2.76191734370623
132  0.894757678951827  2.75650202958218
133   1.86364722798502  2.73229426413929
134   2.84881513053774   2.6701971028436
135   3.81938034827671  2.54537245270171
136   4.77865345268901  2.44676893032588
137   5.73867876985624   2.5070068131763
138    6.7008899610849  2.71776689374489
139   7.72676102637033  2.92904087867833
140   8.78627757493363   2.8946618154635
141   9.66222108408283  2.29497362484007
142    9.9597493240783   1.6991398692864
143   9.95032397565607  1.03161200818907
144   9.63791748950543 0.439242110944283
145   9.11154918072846 0.0308943069566855
146   9.54839138261341 -0.445696392509483
147   9.60070425615048 -0.829709365799826
148   9.56238125589686 -1.17436424342323
149   9.42477337915537 -1.48662975351834
150   9.22336922876644 -1.74178470806974
151   8.98233561787722 -1.94232209193641
152   8.72008779297064 -2.09315901681675
153    8.4491199385396 -2.20143950095231
154   8.17729494759198 -2.27501808943745
155   7.90915444543818 -2.32129612778311
156   7.64709344982701 -2.34650978520437
157   7.39225420467244  -2.3555675294593
158   7.14507492770077 -2.35225100014979
159   6.90558243673697 -2.33951096431807
160   6.67354956948199 -2.31970735742297
161   6.44859099939423 -2.29476520980128
162   6.23022629129862 -2.26627061844436
163   6.01792086210841 -2.23553364003976
164   5.81111240478353 -2.20363351040035
165   5.60922955188121 -2.17145296457309
166   5.41170736953076 -2.13970490260793
167   5.21800172310866 -2.10895382979153
168   5.02760254731651 -2.07963429574159
169   4.84004435600924 -2.05206802086081
170   4.65491118655171 -2.02648047866128
171   4.47183417694247 -2.00301684902031
172   4.29048358836962 -1.98175682421522
173   4.11056003263117 -1.96272762532965
174   3.93178884986306 -1.94591465720966
175   3.75391832938756 -1.93126959692956
176   3.57672010165755 -1.91871627592609
177   3.39998976086673 -1.90815511402163
178   3.22354670508935  -1.8994668757815
179   3.04723310662405  -1.8925162428259
180   2.87091233988614 -1.88715536637159
181   2.69446720066664 -1.88322734883299
182   2.51779811957722 -1.88056953331483
183    2.3408214599699 -1.87901650413105
184   2.16346794821752  -1.8784027568736
185   1.98568134292533 -1.87856504164741
186   1.80741756489799 -1.87934440410067
187   1.62864458507976 -1.88058795421156
188    1.4493433230302 -1.88215039865012
189   1.26950956723187 -1.88389539092784
190   1.08915642158501 -1.88569678644276
191  0.908316236557565 -1.88743991858634
192  0.727040780084969 -1.88902300498431
193  0.545398878091976 -1.89035872808954
194  0.363471834588366 -1.89137592582072
195  0.181348103997822  -1.8920212234696
196  -0.000880982093379854 -1.89226039108597
197  -0.183123408234267 -1.89207923524409
198  -0.365287044842838 -1.89148390473284
199  -0.547280223363185 -1.89050057215061
200  -0.729013940333742 -1.88917453424652
201  -0.910406135654386  -1.8875688544305
202  -1.09138701140575 -1.88576273925146
203  -1.27190358868713 -1.88384986427457
204    -1.451922037126 -1.88193681838178
205  -1.63142747387995 -1.88014173245843
206  -1.81042200302919 -1.87859305080934
207  -1.98892223644446 -1.87742833871959
208  -2.16695733165724 -1.87679301198806
209  -2.34456803604811 -1.87683890301291
210  -2.52180672262183 -1.87772261075151
211   -2.6987381629623  -1.8796035996026
212  -2.87544073941897 -1.88264201638517
213  -3.05200787901317 -1.88699619745677
214  -3.22854961583911 -1.89281985764997
215  -3.40519425441473 -1.90025900036671
216  -3.58209006378682 -1.90944865206113
217   -3.7594068010008 -1.92050956118129
218  -3.93733669377384 -1.93354494077876
219  -4.11609448237516 -1.94863711344839
220   -4.2959165486118 -1.96584356270019
221  -4.47706018140501 -1.98519158214136
222    -4.659805102677 -2.00667070605506
223  -4.84445919737739 -2.03022252598258
224  -5.03136792794948 -2.05572812210443
225  -5.22092341304311  -2.0829937456036
226  -5.41356814578156 -2.11173542102554
227  -5.60979137290016 -2.14156292677748
228  -5.81012002299527 -2.17196314085417
229   -6.0151071877913 -2.20228194977429
230  -6.22531991733149 -2.23170311500567
231  -6.44132628387445 -2.25922198445767
232  -6.66367973584058 -2.28361141451583
233  -6.89289653378147 -2.30337546110528
234  -7.12942028960603 -2.31668116389786
235  -7.37356681566167 -2.32124865506683
236  -7.62543775158004 -2.31416974675589
237  -7.88476876127294 -2.29163575339841
238  -8.15062759338911 -2.24862284770796
239    -8.420833753312 -2.17871834335584
240  -8.69103392282819 -2.07436913111813
241  -8.95355789164804 -1.92767302694498
242  -9.19622162563731 -1.73146073085268
243  -9.40103447108198 -1.48047293757935
244  -9.54292664686726 -1.17256545689046
245  -9.58278307056142 -0.836319224989351
246   -9.5361253777947 -0.459662048924467
247  -9.11446048620938 0.0292049975112479
248  -9.66086649627584 0.410809965552064
249  -10.0067709653243 0.985515777671638
250  -10.0566702485122  1.65268288237247
251  -9.78890309187449   2.2640285855809
252   -8.9456647420172  2.91090388772418
253  -7.88602104782059  2.97180178677022
254  -6.85760919639948  2.76103120253763
255  -5.89035709895146  2.53275509980298
256  -4.93248233221359  2.44900460296965
257  -3.97330113198534  2.53168603407375
258  -3.00448811125062  2.65964672910046
259  -2.01074891849691  2.71957161315101
260  -1.03952822407402  2.72004035046579
