PARAMETER hooke2_power = 4
define edge attribute k_spring real
define edge attribute hooke_size real
QUANTITY slinky ENERGY method hooke2_energy global element_modulus k_spring

define edge attribute sqcurve_string_mark integer
QUANTITY sqc_c1 ENERGY method sqcurve_string_marked global modulus 0.001 parameter_2 1 // Apical lumen
QUANTITY sqc_c2 ENERGY method sqcurve_string_marked global modulus 0.02 parameter_2 2 // Basal ECM



// PARAMETER knot_power = 2     // the default
// QUANTITY knotten ENERGY method knot_energy global modulus e-500

// QUANTITY knotten ENERGY method edge_edge_knot_energy global modulus 0.00000001

// QUANTITY bender ENERGY method dihedral_hooke global

// QUANTITY eminknot info_only method edge_min_knot_energy global

vertices
  1  -25.8620671713964  68.2895768110605
  2  -25.0212290784822  68.8840808923787
  3  -24.0606308853402  69.3185954730868
  4  -23.0049326257351  69.6127547459024
  5  -21.9185405575254   69.787534587332
  6  -20.8402760629678  69.9129421615018
  7  -19.7706602043375  70.0251853963565
  8  -18.7118861628749   70.116457947666
  9  -17.6727388689057  70.1729282094141
 10  -16.7213384002603  70.1865676339736
 11  -15.7899597348701  70.1657176498461
 12  -15.2493535606385  70.1123366518937
 13  -14.6241290235816  69.9536833468377
 14   -14.074609020145  69.5416632520639
 15  -14.0038969619127  68.8691683770523
 16   -14.840439317286  68.6404303022121
 17  -15.3117114987387  68.5997093990038
 18   -15.386771343587  68.5908682187011
 19  -15.4252776117792  68.5862403228484
 20  -15.4618126344398  68.5818493832408
 21  -15.4976407367424  68.5776073417255
 22   -15.535419227856  68.5732494293501
 23  -15.5792280664095  68.5684270457637
 24  -15.6323510338364  68.5630154618983
 25  -15.6968644962589  68.5572485540273
 26  -15.7737542073659  68.5517331413466
 27  -15.8631599270981  68.5473948255882
 28  -15.9647575169558  68.5453501120161
 29  -16.0778954780601  68.5467646312628
 30  -16.2016145737414  68.5527020932557
 31  -16.3349714840137  68.5640152521794
 32  -16.4769916939032  68.5812807866999
 33  -16.6268576490626   68.604795730862
 34  -16.7838051471394  68.6345738584061
 35  -16.9474578552468  68.6704393012909
 36  -17.1175213787127  68.7120132598615
 37  -17.2940128454989  68.7588025027764
 38  -17.4768157582622  68.8101185776604
 39  -17.6661286045715   68.865232377686
 40  -17.8617828335324  68.9232169705329
 41   -18.063885746083  68.9831722116885
 42  -18.2723459579476  69.0441155467544
 43  -18.4869809763134  69.1050373767255
 44  -18.7078068327147  69.1650027239724
 45   -18.934694753079  69.2230713708361
 46  -19.1673632351694   69.278328426693
 47  -19.4055002691533  69.3299375899615
 48  -19.6488440604305  69.3771505815647
 49  -19.8970876606533  69.4192588736068
 50  -20.1497165241051  69.4555549369174
 51  -20.4063140969201  69.4853923801241
 52  -20.6663855657897  69.5081755061359
 53  -20.9294588702347  69.5233810100009
 54  -21.1950730616068  69.5305364015088
 55  -21.4626866143804  69.5291939576874
 56  -21.7318289006866  69.5189302979819
 57  -22.0019657871351  69.4993675679412
 58  -22.2725710722106  69.4701970204326
 59  -22.5431170236879  69.4311738999698
 60  -22.8130451550357  69.3820963161582
 61   -23.081834751492  69.3227787761152
 62  -23.3489008598355  69.2530884621206
 63  -23.6137159228045  69.1729468083492
 64  -23.8757253707422  69.0823541755301
 65  -24.1343730174255  68.9813618476016
 66  -24.3891587290046  68.8700245750877
 67  -24.6395269497759  68.7484545316067
 68  -24.8849737639322  68.6168085794525
 69  -25.1250511968095  68.4752919980378
 70  -25.3592602675479  68.3242014953915
 71  -25.5872160091759  68.1637976553264
 72  -25.8084982132515  67.9943982774181
 73  -26.0227093611402  67.8163794083611
 74  -26.2295745178135  67.6301103033884
 75  -26.4287854553369  67.4360676058151
 76  -26.6201065187715  67.2347141934429
 77  -26.8033560613106  67.0264996679233
 78  -26.9783309401668  66.8119797983873
 79  -27.1449726458377  66.5916528956452
 80  -27.3032316973441  66.3661083736464
 81  -27.4531078771704  66.1359463127909
 82  -27.5946799481592   65.901704953522
 83  -27.7280182808032  65.6640264566646
 84   -27.853305453578  65.4234970894378
 85   -27.970780965625  65.1807332184356
 86  -28.0807157042735  64.9364007469882
 87  -28.1834695108774  64.6910549487414
 88  -28.2793921209806  64.4453861898613
 89  -28.3689562682668  64.1999495534059
 90  -28.4526706189948   63.955403272894
 91  -28.5311250979726  63.7123677246905
 92  -28.6049802450627  63.4714058372309
 93  -28.6748974848945   63.233255359026
 94  -28.7416687241155  62.9984293350784
 95  -28.8060528146915  62.7677922981022
 96  -28.8689141843193  62.5420130920787
 97  -28.9309814841306  62.3222889225468
 98  -28.9929690598526  62.1096949629345
 99  -29.0552632413088  61.9060064280185
100  -29.1180894072728  61.7127726486406
101  -29.1812587101068  61.5318104665469
102  -29.2444699330001  61.3640888910238
103  -29.3071443499572  61.2102487021962
104   -29.368517224611  61.0704618223908
105  -29.4274708987292  60.9449713805424
106  -29.4827895744485  60.8337186750456
107  -29.5332548407691  60.7364928038606
108  -29.5780032598504  60.6526195633357
109  -29.6167452327357  60.5808901831862
110  -29.6500354208131  60.5191870453948
111  -29.6793907936067  60.4641195874921
112  -29.7069571896546  60.4112789016979
113  -29.7342819046531  60.3571952644426
114  -29.7617733631942  60.3002773122659
115  -29.8063698978295  60.2000140011739
116  -29.9404979962929   59.737188151555
117  -30.2667133717585  58.9239687404403
118   -30.827971074938  58.9683467259376
119  -31.2085607686854  59.5298465717776
120  -31.2616824775395  60.1148604064163
121  -31.1881192796866  60.6272607944445
122  -30.9080665984661  61.4927533473422
123  -30.5413973511349  62.3254378604137
124  -30.0773887509716  63.1262532870617
125  -29.5493159953084  63.8983123385939
126  -28.9873294223394  64.6523072903004
127  -28.4124715848918  65.3945522855063
128  -27.8422922365911  66.1303939051903
129  -27.2740882360035   66.862446478243
130  -26.5570466123819  67.6046052901338
131  -25.7801582585032  68.8759490233877
132  -24.8447930657075  69.4403933311662
133  -23.8552075881257  69.8689907304565
134  -22.8315048941631  70.1739988639126
135  -21.7975553529529  70.3817789725186
136  -20.7581713692928  70.5268666514126
137  -19.7005208484282  70.6408199133527
138  -18.6305128334195  70.7312824165263
139  -17.5491214425541  70.7814184575252
140  -16.4567692723701  70.7465053560336
141  -15.3693838396925  70.5533878825555
142  -14.7071884643658  70.3051409269367
143  -14.0935827003395    69.94758645711
144  -13.5622239158836  69.4928537255006
145  -13.1426795543215  68.9875571432533
146  -12.7391356744407  68.2799541505141
147   -12.671182351084  67.9808840418401
148  -12.6625352690897  67.7044901150857
149  -12.7024544522141  67.4350506111132
150  -12.7864520044435  67.1776731757511
151  -12.9092280751112  66.9377193239391
152   -13.065064767126  66.7186755394247
153  -13.2478526156049   66.522883483928
154  -13.4513965341884  66.3515127946786
155  -13.6703159299389  66.2043377912652
156  -13.9002872033657  66.0802737717925
157  -14.1375699594133  65.9779869411181
158  -14.3794943129018  65.8958042717843
159  -14.6243442713311  65.8319747714571
160  -14.8704806874123  65.7849471236172
161   -15.117190692464  65.7531517174382
162  -15.3636689740493  65.7351994018343
163  -15.6094954206244  65.7297655082407
164  -15.8542917612295  65.7356049108119
165  -16.0977772119741  65.7515202056634
166  -16.3397498374002  65.7763480395456
167  -16.5800515614739  65.8089465435418
168   -16.818624733559  65.8481983176587
169  -17.0554295275363  65.8929984690119
170  -17.2905399714632  65.9422731425656
171  -17.5240310523168  65.9949626814049
172  -17.7560403205758  66.0500386048739
173  -17.9867297540428  66.1065023918978
174  -18.2162337227423  66.1633797627455
175    -18.44469775419  66.2197380705474
176  -18.6722710142286  66.2746924751612
177  -18.8990824897868  66.3274063989677
178  -19.1252275492169  66.3770929973255
179  -19.3507662788613  66.4230178303819
180  -19.5757657510911  66.4645076903783
181  -19.8002337302631  66.5009358462198
182  -20.0241626842423  66.5317290134682
183  -20.2475091737713  66.5563613978538
184   -20.470178535709  66.5743524439213
185  -20.6920650522145  66.5852699875984
186  -20.9129991276365  66.5887262164052
187  -21.1328085422201  66.5843806079209
188  -21.3512743775117  66.5719379245055
189  -21.5681737057475  66.5511461372275
190  -21.7832525694443  66.5217953191629
191  -21.9962245717943  66.4837182523593
192  -22.2068175289572  66.4367804770641
193  -22.4147036221545  66.3808925371894
194  -22.6195929818901  66.3159872754079
195  -22.8211833758949  66.2420276011262
196  -23.0191287035518  66.1590219812413
197  -23.2131003072011  66.0670056629429
198  -23.4027496663235  65.9660587261526
199  -23.5877362674002  65.8562980951177
200  -23.7677548782574  65.7378613980953
201  -23.9424648636781  65.6109552458844
202  -24.1115717930941  65.4758075552427
203  -24.2748107947095  65.3326758311469
204  -24.4319053183557    65.18188843593
205  -24.5826729642544  65.0237489748145
206  -24.7269415860435  64.8586110940403
207  -24.8645844006525  64.6868484822715
208  -24.9955420192371  64.5088254696092
209  -25.1197787746552  64.3249555355357
210   -25.237339242224  64.1356270230299
211  -25.3483225268763  63.9412362903533
212  -25.4528844355307  63.7421875095508
213   -25.551256105493  63.5388562176169
214  -25.6437213718152  63.3316295161637
215  -25.7306301078278  63.1208782508991
216  -25.8124001531494  62.9069446416552
217  -25.8895015022039  62.6901780296051
218  -25.9624731384428  62.4708875004447
219  -26.0319029589948  62.2493970399737
220  -26.0984415399091  62.0260060971202
221  -26.1627940813094  61.8010136378125
222  -26.2257181601726  61.5747255382571
223  -26.2880316626703  61.3474205587545
224  -26.3505895502763  61.1194249930817
225  -26.4143052693405   60.891021862431
226   -26.480119589012   60.662549075721
227   -26.549029347663  60.4342871928246
228   -26.622055262412  60.2065704185458
229  -26.7002846553966  59.9796643545641
230  -26.7848354046918  59.7539133348207
231  -26.8768969851896  59.5296679914561
232  -26.9776928443452  59.3074385141915
233  -27.0885147084383  59.0878660619947
234  -27.2107580122665  58.8717445667073
235  -27.3458627864613  58.6602335598872
236  -27.4954688465213  58.4547344764651
237  -27.6609665349827  58.2576236680415
238  -27.8438234200213  58.0717943429928
239  -28.0449248372061  57.9013344989548
240  -28.2643287767738   57.751333366379
241  -28.5011580368204  57.6274761081815
242  -28.7532028138826   57.535743932371
243  -29.0168592193767  57.4818666765383
244  -29.2871277237034  57.4709573697625
245  -29.5581627715831  57.5074378216684
246  -29.8470995189099  57.6050390503774
247  -30.5057769639866  58.0792247066963
248  -30.8754791146963  58.4556162521474
249  -31.2540677318761  59.0045055936413
250  -31.5155579706767  59.6449646674514
251  -31.6285521763093  60.3306937328902
252  -31.5182275238507  61.4148784862663
253  -31.1543518892022  62.4325547971866
254  -30.6504217412126  63.3627020228318
255    -30.07539160267  64.2261279994362
256  -29.4683720850804  65.0439634669922
257  -28.8277776232511  65.8544866269648
258   -28.148928610076  66.6652384427285
259  -27.4224655342917  67.4582854003255
260  -26.6344440336466   68.206622906272

edges
1 1 2 tension squamous_apical sqcurve_string_mark 1 hooke_size l_squamous_apical k_spring k_squamous_apical 
2 2 3 tension squamous_apical sqcurve_string_mark 1 hooke_size l_squamous_apical k_spring k_squamous_apical 
3 3 4 tension squamous_apical sqcurve_string_mark 1 hooke_size l_squamous_apical k_spring k_squamous_apical 
4 4 5 tension squamous_apical sqcurve_string_mark 1 hooke_size l_squamous_apical k_spring k_squamous_apical 
5 5 6 tension squamous_apical sqcurve_string_mark 1 hooke_size l_squamous_apical k_spring k_squamous_apical 
6 6 7 tension squamous_apical sqcurve_string_mark 1 hooke_size l_squamous_apical k_spring k_squamous_apical 
7 7 8 tension squamous_apical sqcurve_string_mark 1 hooke_size l_squamous_apical k_spring k_squamous_apical 
8 8 9 tension squamous_apical sqcurve_string_mark 1 hooke_size l_squamous_apical k_spring k_squamous_apical 
9 9 10 tension squamous_apical sqcurve_string_mark 1 hooke_size l_squamous_apical k_spring k_squamous_apical 
10 10 11 tension squamous_apical sqcurve_string_mark 1 hooke_size l_squamous_apical k_spring k_squamous_apical 
11 11 12 tension cuboidal_apical sqcurve_string_mark 1 hooke_size l_cuboidal_apical k_spring k_cuboidal_apical 
12 12 13 tension cuboidal_apical sqcurve_string_mark 1 hooke_size l_cuboidal_apical k_spring k_cuboidal_apical 
13 13 14 tension cuboidal_apical sqcurve_string_mark 1 hooke_size l_cuboidal_apical k_spring k_cuboidal_apical 
14 14 15 tension cuboidal_apical sqcurve_string_mark 1 hooke_size l_cuboidal_apical k_spring k_cuboidal_apical 
15 15 16 tension cuboidal_apical sqcurve_string_mark 1 hooke_size l_cuboidal_apical k_spring k_cuboidal_apical 
16 16 17 tension columnar_apical sqcurve_string_mark 1 hooke_size l_columnar_apical k_spring k_columnar_apical 
17 17 18 tension columnar_apical sqcurve_string_mark 1 hooke_size l_columnar_apical k_spring k_columnar_apical 
18 18 19 tension columnar_apical sqcurve_string_mark 1 hooke_size l_columnar_apical k_spring k_columnar_apical 
19 19 20 tension columnar_apical sqcurve_string_mark 1 hooke_size l_columnar_apical k_spring k_columnar_apical 
20 20 21 tension columnar_apical sqcurve_string_mark 1 hooke_size l_columnar_apical k_spring k_columnar_apical 
21 21 22 tension columnar_apical sqcurve_string_mark 1 hooke_size l_columnar_apical k_spring k_columnar_apical 
22 22 23 tension columnar_apical sqcurve_string_mark 1 hooke_size l_columnar_apical k_spring k_columnar_apical 
23 23 24 tension columnar_apical sqcurve_string_mark 1 hooke_size l_columnar_apical k_spring k_columnar_apical 
24 24 25 tension columnar_apical sqcurve_string_mark 1 hooke_size l_columnar_apical k_spring k_columnar_apical 
25 25 26 tension columnar_apical sqcurve_string_mark 1 hooke_size l_columnar_apical k_spring k_columnar_apical 
26 26 27 tension columnar_apical sqcurve_string_mark 1 hooke_size l_columnar_apical k_spring k_columnar_apical 
27 27 28 tension columnar_apical sqcurve_string_mark 1 hooke_size l_columnar_apical k_spring k_columnar_apical 
28 28 29 tension columnar_apical sqcurve_string_mark 1 hooke_size l_columnar_apical k_spring k_columnar_apical 
29 29 30 tension columnar_apical sqcurve_string_mark 1 hooke_size l_columnar_apical k_spring k_columnar_apical 
30 30 31 tension columnar_apical sqcurve_string_mark 1 hooke_size l_columnar_apical k_spring k_columnar_apical 
31 31 32 tension columnar_apical sqcurve_string_mark 1 hooke_size l_columnar_apical k_spring k_columnar_apical 
32 32 33 tension columnar_apical sqcurve_string_mark 1 hooke_size l_columnar_apical k_spring k_columnar_apical 
33 33 34 tension columnar_apical sqcurve_string_mark 1 hooke_size l_columnar_apical k_spring k_columnar_apical 
34 34 35 tension columnar_apical sqcurve_string_mark 1 hooke_size l_columnar_apical k_spring k_columnar_apical 
35 35 36 tension columnar_apical sqcurve_string_mark 1 hooke_size l_columnar_apical k_spring k_columnar_apical 
36 36 37 tension columnar_apical sqcurve_string_mark 1 hooke_size l_columnar_apical k_spring k_columnar_apical 
37 37 38 tension columnar_apical sqcurve_string_mark 1 hooke_size l_columnar_apical k_spring k_columnar_apical 
38 38 39 tension columnar_apical sqcurve_string_mark 1 hooke_size l_columnar_apical k_spring k_columnar_apical 
39 39 40 tension columnar_apical sqcurve_string_mark 1 hooke_size l_columnar_apical k_spring k_columnar_apical 
40 40 41 tension columnar_apical sqcurve_string_mark 1 hooke_size l_columnar_apical k_spring k_columnar_apical 
41 41 42 tension columnar_apical sqcurve_string_mark 1 hooke_size l_columnar_apical k_spring k_columnar_apical 
42 42 43 tension columnar_apical sqcurve_string_mark 1 hooke_size l_columnar_apical k_spring k_columnar_apical 
43 43 44 tension columnar_apical sqcurve_string_mark 1 hooke_size l_columnar_apical k_spring k_columnar_apical 
44 44 45 tension columnar_apical sqcurve_string_mark 1 hooke_size l_columnar_apical k_spring k_columnar_apical 
45 45 46 tension columnar_apical sqcurve_string_mark 1 hooke_size l_columnar_apical k_spring k_columnar_apical 
46 46 47 tension columnar_apical sqcurve_string_mark 1 hooke_size l_columnar_apical k_spring k_columnar_apical 
47 47 48 tension columnar_apical sqcurve_string_mark 1 hooke_size l_columnar_apical k_spring k_columnar_apical 
48 48 49 tension columnar_apical sqcurve_string_mark 1 hooke_size l_columnar_apical k_spring k_columnar_apical 
49 49 50 tension columnar_apical sqcurve_string_mark 1 hooke_size l_columnar_apical k_spring k_columnar_apical 
50 50 51 tension columnar_apical sqcurve_string_mark 1 hooke_size l_columnar_apical k_spring k_columnar_apical 
51 51 52 tension columnar_apical sqcurve_string_mark 1 hooke_size l_columnar_apical k_spring k_columnar_apical 
52 52 53 tension columnar_apical sqcurve_string_mark 1 hooke_size l_columnar_apical k_spring k_columnar_apical 
53 53 54 tension columnar_apical sqcurve_string_mark 1 hooke_size l_columnar_apical k_spring k_columnar_apical 
54 54 55 tension columnar_apical sqcurve_string_mark 1 hooke_size l_columnar_apical k_spring k_columnar_apical 
55 55 56 tension columnar_apical sqcurve_string_mark 1 hooke_size l_columnar_apical k_spring k_columnar_apical 
56 56 57 tension columnar_apical sqcurve_string_mark 1 hooke_size l_columnar_apical k_spring k_columnar_apical 
57 57 58 tension columnar_apical sqcurve_string_mark 1 hooke_size l_columnar_apical k_spring k_columnar_apical 
58 58 59 tension columnar_apical sqcurve_string_mark 1 hooke_size l_columnar_apical k_spring k_columnar_apical 
59 59 60 tension columnar_apical sqcurve_string_mark 1 hooke_size l_columnar_apical k_spring k_columnar_apical 
60 60 61 tension columnar_apical sqcurve_string_mark 1 hooke_size l_columnar_apical k_spring k_columnar_apical 
61 61 62 tension columnar_apical sqcurve_string_mark 1 hooke_size l_columnar_apical k_spring k_columnar_apical 
62 62 63 tension columnar_apical sqcurve_string_mark 1 hooke_size l_columnar_apical k_spring k_columnar_apical 
63 63 64 tension columnar_apical sqcurve_string_mark 1 hooke_size l_columnar_apical k_spring k_columnar_apical 
64 64 65 tension columnar_apical sqcurve_string_mark 1 hooke_size l_columnar_apical k_spring k_columnar_apical 
65 65 66 tension columnar_apical sqcurve_string_mark 1 hooke_size l_columnar_apical k_spring k_columnar_apical 
66 66 67 tension columnar_apical sqcurve_string_mark 1 hooke_size l_columnar_apical k_spring k_columnar_apical 
67 67 68 tension columnar_apical sqcurve_string_mark 1 hooke_size l_columnar_apical k_spring k_columnar_apical 
68 68 69 tension columnar_apical sqcurve_string_mark 1 hooke_size l_columnar_apical k_spring k_columnar_apical 
69 69 70 tension columnar_apical sqcurve_string_mark 1 hooke_size l_columnar_apical k_spring k_columnar_apical 
70 70 71 tension columnar_apical sqcurve_string_mark 1 hooke_size l_columnar_apical k_spring k_columnar_apical 
71 71 72 tension columnar_apical sqcurve_string_mark 1 hooke_size l_columnar_apical k_spring k_columnar_apical 
72 72 73 tension columnar_apical sqcurve_string_mark 1 hooke_size l_columnar_apical k_spring k_columnar_apical 
73 73 74 tension columnar_apical sqcurve_string_mark 1 hooke_size l_columnar_apical k_spring k_columnar_apical 
74 74 75 tension columnar_apical sqcurve_string_mark 1 hooke_size l_columnar_apical k_spring k_columnar_apical 
75 75 76 tension columnar_apical sqcurve_string_mark 1 hooke_size l_columnar_apical k_spring k_columnar_apical 
76 76 77 tension columnar_apical sqcurve_string_mark 1 hooke_size l_columnar_apical k_spring k_columnar_apical 
