// Id               X                Y
  1  -0.290901894148464  4.37936812734629
  2  0.763960190782052  4.37400582686821
  3     1.815663293117   4.2548592070489
  4   2.84713090663918  4.05858097978189
  5   3.85698893144971  3.73460237304568
  6   4.83990715927855   3.3108812080542
  7    5.8075742290284  2.87658435963888
  8    6.7831187089816  2.47315595288322
  9   7.73703008225923  2.05311073054764
 10   8.59953134118189   1.4779699436754
 11    9.1276718360803 0.543898814585976
 12   8.94990033675785 -0.079152451742107
 13   8.50240680695946 -0.403951781496215
 14   7.95751263478177 -0.396227010254776
 15   7.52265533045736 -0.0968284933947357
 16   7.21875291294447 0.656735086836544
 17   7.06286370020664  1.00227933861173
 18    7.0174700436612  1.08287545256968
 19   6.96810124959191  1.16393128995889
 20   6.91042495327634  1.25190328721163
 21   6.84510370453842  1.34447872398137
 22    6.7732898510367  1.43938005674457
 23   6.69559262745176  1.53541796944755
 24   6.61233230297299  1.63202342856746
 25   6.52368990709441  1.72886682480213
 26   6.42981388777417  1.82571368175712
 27   6.33084604083238  1.92235771548581
 28   6.22693584726685  2.01860700316238
 29   6.11823590132001  2.11427549233074
 30   6.00490041461923  2.20918408138073
 31   5.88708083856042  2.30315890221226
 32   5.76492445990394  2.39603146604779
 33   5.63857331859086  2.48763768519122
 34   5.50816449858779  2.57781748406564
 35    5.3738308852078  2.66641439694949
 36   5.23570237306442  2.75327555665478
 37   5.09390719847907  2.83825194563349
 38   4.94857327039519  2.92119893905585
 39   4.79982936673721  3.00197706562002
 40   4.64780612337954  3.08045292852557
 41   4.49263676820059  3.15650021337041
 42   4.33445758037471  3.23000071453804
 43   4.17340807383754  3.30084531546236
 44   4.00963091880765  3.36893486641742
 45   3.84327162596052  3.43418091295265
 46   3.67447802545759  3.49650623869248
 47   3.50339957803678  3.55584519708249
 48   3.33018655830892  3.61214381734662
 49   3.15498915166424  3.66535968001268
 50   2.97795650606542  3.71546156657815
 51    2.7992357786887  3.76242889601645
 52   2.61897121500935  3.80625096772446
 53   2.43730329462118  3.84692603609543
 54   2.25436797394347  3.88446024612324
 55   2.07029605114096  3.91886646229908
 56   1.88521267323521  3.95016302459072
 57   1.69923699972495  3.97837246558199
 58    1.5124820312788  4.00352022202564
 59   1.32505460643659  4.02563337229649
 60   1.13705556395355  4.04473942871995
 61  0.948580063606645  4.06086521070516
 62   0.75971805406834  4.07403582124081
 63  0.570554872904508  4.08427374580372
 64   0.38117196088377  4.09159808924444
 65  0.191647670569906  4.09602396286644
 66  0.00205814755016128  4.09756203077602
 67  -0.187521738441691  4.09621822167362
 68  -0.377017435892598  4.09199360956486
 69  -0.566353751010193  4.08488446434083
 70  -0.755453907911258  4.07488247073583
 71  -0.944238652639048  4.06197511173322
 72  -1.13262542339184  4.04614620997395
 73   -1.3205276082047  4.02737661806245
 74  -1.50785390974486  4.00564504582367
 75  -1.69450783479206  3.98092900954333
 76  -1.88038732331516  3.95320588506438
 77  -2.06538452878273  3.92245404340578
 78  -2.24938575744026  3.88865404444809
 79  -2.43227156977971  3.85178986136479
 80  -2.61391704238667  3.81185010606469
 81   -2.7941921829016  3.76882922415933
 82  -2.97296248514058  3.72272862708206
 83  -3.15008960569548   3.6735577291479
 84  -3.32543213780706   3.6213348586968
 85  -3.49884645321723  3.56608801510675
 86   -3.6701875782932    3.507855447433
 87    -3.839310067184  3.44668603570973
 88  -4.00606883229188  3.38263946246715
 89  -4.17031989105845  3.31578616965306
 90  -4.33192098809599  3.24620710474329
 91  -4.49073205316434  3.17399326918631
 92  -4.64661545856897  3.09924509221759
 93  -4.79943604449177  3.02207166321475
 94  -4.94906088794433  2.94258986577812
 95  -5.09535880102135  2.86092346614922
 96  -5.23819955768327  2.77720221673062
 97  -5.37745286651973  2.69156104157911
 98  -5.51298713090259  2.60413937313235
 99  -5.64466806981885   2.5150807073653
100  -5.77235731188703  2.42453243216739
101  -5.89591112809826  2.33264596576413
102  -6.01517951914264  2.23957719241307
103  -6.13000595255264  2.14548715198732
104  -6.24022803755748  2.05054281295984
105  -6.34567948721476   1.9549178481488
106  -6.44619324273154   1.8587932368992
107  -6.54160520556891  1.76235873462323
108  -6.63175524024434  1.66581802289182
109  -6.71647855852856  1.56940827378993
110   -6.7955701392419  1.47345950208519
111  -6.86869265137146  1.37855354931568
112  -6.93519038360979  1.28588365051806
113  -6.99389937750198  1.19777748667192
114  -7.04407663119899  1.11656044341443
115  -7.09020206242116   1.0357740870865
116  -7.24741658212722  0.69068863630435
117  -7.55146188949031 -0.0628509342596582
118  -7.98429481661636 -0.366752340763299
119  -8.53007431793007 -0.38494273200151
120  -8.98597659349533 -0.0733360876782645
121  -9.18318611638621 0.540682400151808
122  -8.67921321472285   1.4837895193351
123  -7.86660511086511  2.03726135823226
124  -6.98586230705524  2.41758978318756
125  -6.10110685520853  2.76506303264168
126  -5.23093947089594  3.14206339731969
127  -4.36541452596757  3.54433154674837
128  -3.39752072597481  3.91254480951576
129   -2.3978780804735  4.14981182010834
130  -1.34540551979723  4.28220944378504
131  -0.0292342892865984  4.90916470284317
132   1.07253931770623  4.88082267077674
133   2.16498261255021  4.74144735894423
134   3.23952499818545  4.50090278262425
135   4.28059325855274  4.14603844491959
136   5.28885516038059  3.71130371677138
137   6.28728953703671  3.25564661100422
138   7.29444314915167  2.81263702649243
139   8.28525403414185  2.32302707646512
140   9.15977683519863  1.64444547665694
141   9.54907430309153 0.613413028710965
142   9.47188459868464 -0.085042813245309
143   8.99969569329224 -0.615034820512136
144   8.31684990848613 -0.826713543569087
145   7.60605798563334 -0.910215898349051
146   7.50375693255607 -1.71846693456709
147   7.38569127202291 -1.91527762645585
148   7.18813109113295 -1.92508689250987
149   7.00304347378658 -1.85958881272526
150   6.83155130418145 -1.76925875994896
151   6.66801364561474 -1.67046160430619
152   6.50968004886548 -1.56803119432664
153   6.35533847440482 -1.46365673091227
154   6.20430163950753  -1.3582075762065
155   6.05604224115591 -1.25232674984276
156   5.91008938271436   -1.146561788427
157   5.76600879141231 -1.04138606655427
158   5.62340403485341 -0.937202805339233
159   5.48191950507599 -0.834350833387668
160   5.34124094669928 -0.733113167938625
161   5.20109364665302 -0.633726488701551
162   5.06123927856085 -0.536390043919977
163    4.9214722416667 -0.441273273975993
164   4.78161603334603 -0.34852195433754
165   4.64151993697066 -0.258262919568997
166   4.50105613785751  -0.1706075472206
167   4.36011727735119 -0.0856542159617662
168   4.21861440014008 -0.00348995096542814
169   4.07647522504874 0.075808549091841
170   3.93364266353818  0.15217433369212
171   3.79007351509396 0.225549926859509
172   3.64573727952972 0.295887238861505
173   3.50061503964256 0.363147566269647
174   3.35469838149102 0.427301603559836
175   3.20798833248226 0.488329407363238
176   3.06049430864637 0.546220270386125
177   2.91223307151082 0.600972476082415
178   2.76322770170172 0.652592917520409
179   2.61350660081953 0.701096574614727
180   2.46310253544143  0.74650585302967
181   2.31205173756723 0.788849795607441
182   2.16039307479803 0.828163183133082
183   2.00816730139639 0.864485545631597
184   1.85541639850695  0.89786010824699
185   1.70218300857914 0.928332697168221
186   1.54850996574534 0.955950631183083
187   1.39443992082673 0.980761623445155
188   1.24001505695539  1.00281271615643
189    1.0852768896349  1.02214926834723
190  0.930266143465219  1.03881401402872
191  0.775022696725136  1.05284620494167
192  0.619585584482979  1.06428084913761
193  0.463993050805973    1.073148053873
194  0.308282640853045  1.07947247888974
195  0.152491324050161  1.08327290416111
196  -0.00334435994871949  1.08456191461227
197  -0.159188140315897  1.08334570314614
198  -0.31500384651019  1.07962399244594
199  -0.470755239265365  1.07339007538651
200  -0.626405848131512  1.06463097334742
201  -0.781918822672114  1.05332771115949
202  -0.937256804651024  1.03945570670922
203   -1.0923818288825  1.02298527226751
204  -1.24725526079566  1.00388222331638
205  -1.40183777909566 0.982108588972517
206  -1.55608941208841 0.957623416040474
207  -1.70996963617003 0.930383656313654
208  -1.86343754456561 0.900345124066334
209  -2.01645209355331 0.867463507886495
210  -2.16897243207224  0.83169541827102
211  -2.32095831877505 0.792999449961437
212  -2.47237062828554 0.751337236079616
213  -2.62317194575777 0.706674469973196
214  -2.77332724596611  0.65898187053035
215  -2.92280465030963 0.608236067774021
216   -3.0715762525667 0.554420387955629
217  -3.21961900230648 0.497525521248892
218  -3.36691563390195 0.437550060561457
219  -3.51345562944566 0.374500906966574
220  -3.65923620588306 0.308393545824197
221  -3.80426332064067 0.239252207834254
222  -3.94855269615743  0.16710994110345
223   -4.0921308721342 0.0920086339295735
224  -4.23503630494294 0.0139990436064919
225  -4.37732054619334 -0.0668590956102812
226  -4.51904954629945 -0.150496791876645
227  -4.66030514286012 -0.236835225877986
228  -4.80118680580203 -0.325784749355661
229  -4.94181371835379 -0.417243282089006
230  -5.08232726998247 -0.51109391011131
231  -5.22289401658831 -0.607201466152128
232  -5.36370911256474 -0.705407867740978
233  -5.50500012153355 -0.805526020758959
234  -5.64703094550662 -0.907332207224975
235  -5.79010535936398 -1.01055713650734
236  -5.93456932901863 -1.11487633993028
237  -6.08081115017044 -1.21990133725524
238  -6.22925929640698 -1.32517340274613
239  -6.38038226477966 -1.43015874181925
240  -6.53470969612042 -1.53422573889068
241  -6.69293791611659 -1.63651193637702
242  -6.85629814313238 -1.73532791578372
243  -7.02757845123254 -1.82583035408703
244  -7.21249594577249 -1.89162303721409
245  -7.41002854062429 -1.88207465369856
246  -7.52794463088388 -1.68515351648363
247  -7.63075197028037 -0.87686270987982
248  -8.34181192422466 -0.802584260062971
249  -9.02742326464612 -0.602159546964699
250  -9.50948615335541 -0.0814659413884556
251  -9.60374411485053 0.614579969701687
252  -9.23865065518315  1.65360877523805
253  -8.38456226436462  2.35531080859178
254  -7.40228075311625  2.85973220495637
255  -6.38687209360661  3.28973944116131
256  -5.37292132636837  3.72253656179869
257  -4.35227119255963  4.14229678435223
258  -3.30635516097792  4.49560773100833
259  -2.22516684299036  4.71677746493439
260   -1.1285493359592  4.83503323356945
