// Id               X                Y
  1  -0.392107561487576  17.9664696493877
  2  0.710079306373973  17.9160183317808
  3   1.78812873933293  17.6874104262345
  4   2.81530415283411  17.2820434973444
  5   3.75900686001133  16.7039593832347
  6   4.57932889551694  15.9634840889638
  7   5.22819032274037  15.1009504174967
  8   5.63936184364464  14.2255866005806
  9    6.0665356562824  13.3661549257902
 10   6.56924887038941  12.5615625148328
 11   7.12140595591899  11.7893735520439
 12   7.41068503842977  11.3144890463172
 13   7.62858569607197  10.8041712865985
 14   7.70520480249617  10.2526510396465
 15   7.55029669202542  9.71043921962385
 16   7.01512607617897  9.29615911427674
 17   6.77698909376028  9.26310528786967
 18    6.5913370892268  9.28151587772856
 19   6.41622986033431  9.33620623069433
 20   6.25328169067126  9.42240902829637
 21   6.10375740948202  9.54085246055203
 22   5.95988126394616  9.70304852778401
 23   5.84201904559699  9.89306397012103
 24   5.75156426302816  10.1031062304555
 25   5.68717741058048  10.3270052974174
 26   5.64558091160546  10.5600454280544
 27   5.62265568442227  10.7990165963925
 28   5.61394323738158  11.0419311188798
 29   5.61504740447397  11.2876970387114
 30   5.62183391517303  11.5357925890278
 31   5.63053889785245  11.7859949778795
 32   5.63781190942621  12.0381767509041
 33   5.64072822381446  12.2921682478413
 34    5.6367853206293  12.5476768595293
 35   5.62389209768205  12.8042512428122
 36   5.60035352050858  13.0612786882631
 37   5.56485112902781   13.318004975518
 38   5.51641902538135  13.5735676441593
 39   5.45441519259942   13.827035345812
 40   5.37848857655955   14.077447684288
 41   5.28854295866455  14.3238516021154
 42   5.18469905285182  14.5653318551618
 43   5.06725641511881  14.8010343693157
 44   4.93665667593259  15.0301822553123
 45   4.79344935957031  15.2520849605874
 46   4.63826121624069  15.4661414794961
 47   4.47176963175098  15.6718387651724
 48    4.2946803464027  15.8687465383983
 49   4.10770944080348  16.0565096224995
 50   3.91156934633988  16.2348387937981
 51   3.70695849106464  16.4035009819019
 52   3.49455396601962  16.5623095796365
 53   3.27500665960853  16.7111152413142
 54   3.04894223388128  16.8497948909759
 55   2.81697401099452  16.9782379311411
 56    2.5796704452692  17.0963643228007
 57   2.33756417700757  17.2041066759578
 58   2.09116752802883  17.3013995682363
 59   1.84097299402163  17.3881839915863
 60   1.58745766962494  17.4644056689259
 61   1.33108442840235  17.5300150843126
 62    1.0723040258926  17.5849677639651
 63  0.811557455456896  17.6292248176072
 64  0.549278106105386   17.662753699445
 65  0.285893687734571  17.6855290415111
 66  0.0218279525283933  17.6975334188357
 67  -0.242497745682586  17.6987579333691
 68  -0.506662998560667  17.6892025365939
 69  -0.770246932126464  17.6688760480464
 70   -1.0328267692394  17.6377958665158
 71  -1.29397629997779  17.5959874103638
 72  -1.55326420246374  17.5434833610949
 73  -1.81025217010897  17.4803228179093
 74  -2.06449281486765  17.4065504991588
 75  -2.31552735579066  17.3222161406961
 76  -2.56288341013289  17.2273741686531
 77  -2.80607368073908  17.1220835891884
 78  -3.04459290726203  17.0064091522359
 79  -3.27791393320898   16.880420106036
 80  -3.50548408255051  16.7441899106534
 81   -3.7266967230976  16.5978267057074
 82  -3.94093442576395  16.4414500086079
 83   -4.1475566262792  16.2752027622578
 84  -4.34589667869048  16.0992629959166
 85  -4.53526618298424  15.9138529217742
 86  -4.71496184644613  15.7192484116667
 87  -4.88427519935787  15.5157887028841
 88  -5.04250582476598   15.303885594282
 89  -5.18897851528523  15.0840313338541
 90  -5.32306462560776  14.8568042544016
 91  -5.44420770677267  14.6228710702969
 92  -5.55195325254075  14.3829846693767
 93  -5.64598207110114   14.137976263562
 94   -5.7261464440426  13.8887409497134
 95  -5.79250789500249  13.6362161293533
 96  -5.84537512691411  13.3813528844886
 97   -5.8853405732712  13.1250813306617
 98  -5.91331411069908  12.8682721649032
 99  -5.93055282524613  12.6116980633613
100  -5.93868626509212  12.3560002031997
101  -5.93973717904014  12.1016669102358
102  -5.93613799892917  11.8490331756156
103  -5.93074274040646  11.5983114047671
104  -5.92683182884221  11.3496649839841
105  -5.92810271484881  11.1033364561194
106  -5.93863118805962  10.8598399928798
107   -5.9627767440708  10.6202210622051
108  -6.00499151431327  10.3863710555635
109  -6.06948067820968   10.161356943426
110  -6.15966192883843     9.94968416566
111  -6.27739064797089    9.757364390237
112   -6.4219168883188  9.59165226101158
113  -6.58793690473051  9.46059597698183
114  -6.75387053788669  9.37453031837942
115  -6.93148463613862  9.32192099754417
116  -7.17035069804246  9.30787435335459
117  -7.77545689886973  9.60267953862891
118  -8.01602671889005  10.0939567744033
119  -8.01342387796749  10.6387685662453
120  -7.84106934033556  11.1562374578038
121  -7.57350821068958  11.6332236165109
122  -7.01348425596376  12.3930630468769
123  -6.48083610255703  13.1689325107452
124  -6.02792830361721  13.9994520687179
125  -5.62404319863955  14.8629943633465
126   -5.0386267271193  15.7730348998972
127  -4.37414484115048  16.4718185827847
128  -3.51369921967293   17.065906759699
129  -2.54151843924189  17.5266124316123
130  -1.47315323368764  17.7764188753489
131  -0.25643476703161  18.5241903594829
132  0.846082539698433  18.4775744233108
133   1.92356265740037   18.248384857393
134   2.94867922351653  17.8439288388154
135   3.89152224394859  17.2684691836091
136    4.7210115648645  16.5339633821397
137   5.42064227610517  15.6732846859619
138   5.99207406141281  14.7269696758846
139   6.52382100035832  13.7659181820621
140   7.10134181318927  12.8349984223194
141   7.73376031684386  11.9416589054699
142   7.99387610467426  11.4912757729547
143    8.1777656448793  11.0066835844336
144   8.25771325337497  10.4955284377933
145   8.19397243429513  9.98146613315357
146   8.64763078642327  9.75668708873096
147   9.71567333481016  9.36848866691746
148   9.54854292825152   8.9417328705942
149   9.29199303453505  8.54795343126092
150   8.98602258832337  8.19349512432088
151   8.62892990309206  7.89104612417912
152    8.1958578522072   7.6693831585755
153   7.72688999445431  7.52637719261708
154   7.24125753139887  7.46723364075342
155   6.75758654589429  7.49320605448934
156   6.29356385040532  7.59988790045765
157   5.86404021047677  7.77776381362842
158   5.47954971609915  8.01372153620113
159   5.14568229589288  8.29301147530265
160   4.86335093046075  8.60112482715522
161   4.62971349249709  8.92520033008464
162   4.43938956466743  9.25480295310699
163   4.28565072666178   9.5821277511961
164    4.1613853205526  9.90179844617339
165   4.05976718790835  10.2104509129102
166   3.97464749814426  10.5062535436782
167     3.900731514962   10.788459657193
168   3.83361017475577  11.0570370614407
169   3.76970607280176  11.3123858573276
170   3.70617726862176  11.5551369618606
171   3.64080703209428  11.7860162400984
172   3.57189584678261  12.0057580010474
173   3.49816392669559  12.2150535638042
174   3.41866749480048  12.4145235869449
175   3.33272922665424  12.6047058224296
176   3.23988181295494  12.7860524709013
177   3.13982297954438  12.9589332807633
178   3.03238016075766  13.1236420399219
179   2.91748313724196  13.2804053923208
180   2.79514282290583  13.4293932997388
181   2.66543261983076  13.5707241073353
182   2.52847362718077  13.7044604223586
183   2.38448839212563  13.8308534090104
184   2.23403005058878  13.9518893037302
185   2.07754815562261  14.0721762206371
186   1.91251738238446  14.1831916516466
187   1.73903961555767  14.2799179260118
188   1.55930045227194  14.3662299063481
189   1.37428013256239  14.4433850788007
190    1.1845462236478  14.5113834526191
191  0.990650046166786  14.5700950006483
192  0.793168146460497  14.6194028100424
193   0.59269957537213  14.6591979915444
194  0.389864387709356  14.6893837569368
195  0.185301081990205  14.7098817464292
196  -0.0203375350559385  14.7206364392436
197  -0.226389542219512  14.7216178949243
198  -0.432189706307846  14.7128231302914
199  -0.637075504465434    14.69427621561
200  -0.840392988312203  14.6660270955534
201  -1.04150210714987  14.6281490747611
202  -1.23978106429668  14.5807347236452
203  -1.43462918549401  14.5238898054564
204  -1.62546835221969  14.4577276748617
205  -1.81174542867024  14.3823734048391
206  -1.99291230957897  14.2978902064379
207  -2.16815451233175  14.2034633690264
208  -2.33557510776302  14.0956177625688
209  -2.49394108528024  13.9755021753694
210  -2.64619149319849  13.8550038939113
211  -2.79215898299744   13.729845644869
212  -2.93124096286233   13.597461289343
213  -3.06318666687798  13.4574654885882
214  -3.18787267820687   13.309796647521
215  -3.30522466008629  13.1543442376138
216   -3.4152286233127  12.9909459660096
217  -3.51794966567752  12.8193853810273
218  -3.61355256151176  12.6393817286701
219  -3.70232805850861  12.4505811918391
220  -3.78472681129423  12.2525505340067
221  -3.86140257712577  12.0447740512165
222  -3.93326640757461   11.826655993939
223  -4.00155345026314  11.5975320651222
224  -4.06790341424989  11.3566954574495
225  -4.13445442046906  11.1034452695566
226  -4.20394733420842  10.8371679613721
227  -4.27983304241694  10.5574653896659
228  -4.36636765043684  10.2643449582278
229  -4.46866953778598   9.9584866582787
230  -4.59269776289426  9.64159516035052
231   -4.7450956500334  9.31682836501043
232  -4.93283257385874  8.98926260457694
233  -5.16258230453297  8.66630783178971
234  -5.43981331518346  8.35793122907212
235  -5.76764793364951  8.07650718896765
236   -6.1456685025834  7.83612301272252
237  -6.56897140687003   7.6512702109731
238  -7.02782120719875  7.53504528962534
239    -7.508163959041  7.49721212804827
240   -7.9930063185389  7.54262865526227
241  -8.46432000548726  7.67052975564554
242  -8.90441064578665  7.87532662247447
243  -9.28895805432657  8.15310137408542
244  -9.60250126791003  8.49056438984979
245  -9.83916165047223  8.87613736976176
246  -8.86689092207635   9.4528096419977
247  -8.45821155721173  9.75289995890751
248  -8.60038634027502  10.2499550895808
249  -8.58289506463342  10.7658041054005
250  -8.44274788662552  11.2637020009343
251  -8.20911089046006  11.7273697103976
252  -7.57474310775956  12.6187061073133
253   -6.9673518523962  13.5290795064967
254  -6.41352903600219  14.4752570674809
255  -5.85485004362416  15.4257241533527
256  -5.22761315829502  16.3390368753043
257  -4.39730956688167  17.0754641970147
258  -3.45380159136201  17.6637429943848
259  -2.42961843433019  18.0963751333248
260  -1.35039221724661  18.3527518218991
