// Id               X                Y
  1  0.0982745002582117  4.14728497665031
  2   1.15392613404548  4.09752431292878
  3   2.18369736745806  3.94037075437438
  4   3.19812190411602  3.67329879234207
  5   4.19566084184573  3.30533290119365
  6   5.07825508436696  2.87867934153413
  7   5.93429217992762  2.45158074101965
  8   6.78833210005822  2.02620252624884
  9   7.61993732068248  1.54971584569961
 10    8.3526604841909 0.916289378287826
 11   8.79359118425774 -0.048977439907338
 12   8.61384542207003 -0.67382959518344
 13   8.17690941435366 -1.02559940944731
 14    7.6535365400585 -1.05715455548185
 15   7.22355870775749 -0.798595843748915
 16   6.94235347246477 -0.114671695149227
 17   6.76665964127277 0.934396617221163
 18   6.68977577191267  1.08679221011985
 19   6.63170394665382  1.18467889877225
 20   6.57666723737616   1.2679427832686
 21   6.52246046277658  1.34298165950873
 22   6.46646829097446  1.41478490774633
 23    6.4062647944569  1.48670130351527
 24   6.34024216084017  1.56050388007554
 25   6.26744221371877  1.63682552929499
 26   6.18745343691791  1.71569002442314
 27   6.10021212021289  1.79678140609347
 28   6.00590412817007  1.87964462450588
 29   5.90486867728453  1.96377926519835
 30   5.79753350009895  2.04869647260147
 31   5.68436263542795  2.13394373843803
 32   5.56582015397247  2.21911511188026
 33   5.44234604215878  2.30385169274209
 34    5.3143428971196   2.3878380292848
 35   5.18217049213792   2.4707966774867
 36   5.04614587839222  2.55248270639011
 37    4.9065468078022   2.6326787973088
 38   4.76361686431184   2.7111912368508
 39   4.61757115356114  2.78784677851699
 40   4.46860183352661  2.86249024737558
 41   4.31688307749676  2.93498271962153
 42   4.16257527812116  3.00520012007269
 43   4.00582844015086  3.07303210638925
 44   3.84678479418462  3.13838113902253
 45   3.68558071132648   3.2011616628792
 46   3.52234802207335  3.26129934877863
 47   3.35721485042886  3.31873035993144
 48   3.19030607176971  3.37340062168287
 49   3.02174349413412  3.42526508249371
 50   2.85164585005655  3.47428696127579
 51   2.68012867185301  3.52043698128962
 52   2.50730410887633  3.56369259426208
 53   2.33328073177822  3.60403720054713
 54   2.15816335690237  3.64145937234796
 55   1.98205291390878  3.67595208752786
 56   1.80504637164077  3.70751198159778
 57   1.62723673094769  3.73613862526403
 58   1.44871308841566  3.76183383457976
 59   1.26956077144122  3.78460102034395
 60   1.08986154252215   3.8044445829696
 61  0.909693868784963  3.82136935860619
 62  0.729133251417689  3.83538012184512
 63  0.548252608678632  3.84648114984752
 64  0.367122705399674  3.85467585220133
 65  0.185812621325901  3.85996647023127
 66  0.0043902501874439  3.86235384885159
 67  -0.177077178940904   3.8618372833699
 68  -0.358522566685779  3.85841444293222
 69  -0.539878403685023  3.85208137155483
 70  -0.721076235102231  3.84283256693287
 71  -0.902046138289687    3.830661136464
 72  -1.08271622246431  3.81555902919272
 73  -1.26301215909683  3.79751734168107
 74  -1.44285675145588  3.77652669515623
 75   -1.6221695513769  3.75257768068188
 76  -1.80086653080809  3.72566136854967
 77  -1.97885981496123  3.69576987758431
 78  -2.15605748287361  3.66289699958809
 79  -2.33236343972561  3.62703887370019
 80  -2.50767736316265  3.58819470499641
 81  -2.68189472287875  3.54636752119773
 82  -2.85490686851701  3.50156496090688
 83  -3.02660117517345  3.45380008640414
 84  -3.19686122810499  3.40309221381312
 85  -3.36556701835704  3.34946775356662
 86  -3.53259510881414  3.29296105480019
 87  -3.69781871576526  3.23361524887602
 88   -3.8611076349378  3.17148309003989
 89   -4.0223279239844  3.10662779562641
 90  -4.18134123696679  3.03912389469574
 91  -4.33800369234235  2.96905810306136
 92  -4.49216414682935  2.89653025510351
 93  -4.64366174677046  2.82165433956129
 94  -4.79232264138254  2.74455970884624
 95  -4.93795577664373  2.66539256015185
 96   -5.0803477573978  2.58431782119629
 97  -5.21925688785337  2.50152160904166
 98  -5.35440670425633  2.41721445556795
 99  -5.48547962855623  2.33163548072552
100  -5.61211182665309  2.24505760324366
101  -5.73389094665188  2.15779363316464
102  -5.85035908320415   2.0702025941568
103  -5.96102395197511  1.98269479958874
104  -6.06538147747427  1.89573271405711
105  -6.16295315405099  1.80982301026674
106  -6.25334002477717  1.72549116639724
107  -6.33629667646584  1.64322752197913
108  -6.41182586506507  1.56338167477693
109  -6.48030359120321  1.48597550866915
110  -6.54263852582583  1.41038210555192
111  -6.60045127611138  1.33483228365566
112  -6.65612601862253  1.25585637492188
113  -6.71226655328835  1.16829740640263
114  -6.77088800880108  1.06554985253451
115  -6.84657482841042 0.907510254702673
116  -6.99183236113786 -0.150113050970398
117  -7.25015692493467 -0.843571856681859
118  -7.67050725589546 -1.12105000572014
119  -8.19675379383425 -1.11645665198168
120  -8.65485702101176 -0.790188410170048
121  -8.87249252774366 -0.178945855835469
122  -8.48587535847267 0.810464436715428
123   -7.7437582541966   1.4955116142595
124  -6.86443797930335  2.02041671291464
125   -5.9370493839043  2.49206758377873
126  -5.00060341527148  2.96047431981138
127  -4.04410419349896  3.40920616328851
128  -3.02331254848809  3.75378206075348
129  -1.98349508767478   3.9957340658583
130  -0.941442518647294  4.09752150186146
131  -0.14528156183775  4.68405040591463
132  0.957337667411047   4.6543484314938
133   2.05241390190742  4.51512042035804
134   3.12685683434036  4.25847686730192
135    4.1717019520424  3.89783037837265
136   5.18962868748592  3.46688270724175
137   6.18815091825019  2.99588267974385
138   7.17043620893277  2.49311056396691
139   8.10619920680105  1.90765680385868
140   8.89413360087322  1.13386907911479
141   9.25310642682065 0.0931916619205981
142   9.12932827605388 -0.597825871358692
143   8.68169479402107 -1.15202892593263
144    8.0192926138011 -1.44061018275845
145   7.30420223506119 -1.55422260505328
146   6.61691295678942  -1.7960572639209
147   6.46791861198755 -1.80357878481012
148   6.31192410836922 -1.79051826480173
149   6.15723698723146  -1.7582893030367
150   6.00681140314078 -1.71003134425397
151   5.86133038139977 -1.64861189718892
152   5.72107185173834 -1.57676794138061
153   5.58591621926578 -1.49704594453064
154   5.45539015827439 -1.41167776665008
155    5.3288009041134 -1.32252953725223
156   5.20536638906225 -1.23111327758524
157   5.08430850614492 -1.13862838594434
158   4.96490966411726 -1.04601149906555
159   4.84654154143633 -0.953984670788195
160   4.72867522478549 -0.863098187637829
161   4.61087979671147 -0.773767041644713
162    4.4928143726286 -0.686301154420545
163   4.37421694696363 -0.600929870348219
164   4.25489221902678 -0.517821424732291
165   4.13469972871941 -0.437098160846858
166   4.01354305551362 -0.358848257615685
167   3.89136044407059 -0.283134658846239
168   3.76811696346351 -0.210001793666508
169   3.64379814595221 -0.139480570653543
170   3.51840495892137 -0.0715920315603385
171   3.39194991964402 -0.00634997129539972
172   3.26445415125739 0.0562372310429992
173   3.13594518759413 0.116165372954627
174   3.00645535531413 0.173433621448541
175   2.87602058784572 0.228044008836448
176   2.74467955284734 0.280001127901057
177   2.61247300072302 0.329311945239583
178   2.47944326476343 0.375985671088568
179   2.34563386307138 0.420033640879809
180   2.21108916837773 0.461469178227379
181   2.07585412427378 0.500307421040103
182   1.93997399558788 0.536565102069974
183   1.80349414704194 0.570260282589332
184   1.66645984842354 0.601412043247682
185   1.52891610679889 0.630040139752673
186   1.39090752724695 0.656164633137832
187   1.25247820363741 0.679805505319578
188   1.11367164045895 0.700982270694557
189  0.974530705904403 0.719713593947749
190  0.835097615536735 0.736016923259084
191  0.695413945024947 0.749908146898358
192  0.555520669726642 0.761401279929646
193  0.415458228334591 0.770508186511387
194  0.275266607398004 0.777238342144154
195  0.134985443255819 0.781598639220837
196  -0.00534586224998484 0.783593238383035
197  -0.145688016009769 0.783223467472518
198  -0.286001701611884 0.780487769261568
199  -0.426247444850897 0.775381698614087
200  -0.56638548061238  0.76789796922713
201  -0.706375624983519 0.758026549582877
202  -0.846177156439482 0.745754807157409
203  -0.985748709923368 0.731067699241839
204  -1.12504818754516 0.713948007898088
205  -1.26403268943907 0.694376615573265
206  -1.40265846800343 0.672332816728859
207  -1.54088090827311  0.64779465952383
208  -1.67865453652373 0.620739310176248
209  -1.81593305839081 0.591143431206058
210  -1.95266942685389 0.558983563465939
211  -2.08881593949214 0.524236500879487
212  -2.22432436364091 0.486879646355583
213  -2.35914608772933  0.44689133770826
214  -2.49323229751122 0.404251133890858
215  -2.62653417755661 0.358940054779588
216  -2.75900314177089 0.310940772441907
217  -2.89059110242632  0.26023775860075
218  -3.02125079581689 0.206817402106213
219  -3.15093619474795 0.150668121825846
220   -3.2796030541268 0.0917805145509134
221   -3.4072096562594 0.0301475943039418
222   -3.5337178471608 -0.0342348011727316
223  -3.65909448392491 -0.10136733883686
224   -3.7833134449914 -0.171246130399697
225  -3.90635838797183 -0.243861130919335
226  -4.02822646995273 -0.319193806184127
227  -4.14893326702215 -0.397213831726482
228  -4.26851913433318 -0.477874522726362
229  -4.38705722284675 -0.561106608387545
230  -4.50466329725758 -0.646809852806762
231  -4.62150735950548 -0.734841889773282
232  -4.73782684395714 -0.825003496180031
233  -4.85394077092678 -0.917019407248377
234  -4.97026366010354 -1.01051371617403
235   -5.0873171219495 -1.10497894134806
236  -5.20573574225486 -1.19973802922918
237  -5.32626204124585 -1.29389900755602
238  -5.44972289849287 -1.38630308500239
239  -5.57697733129803  -1.4754697237647
240  -5.70882490369332 -1.55954856485291
241  -5.84587231528522 -1.63630037021866
242  -5.98839016153411 -1.70314364243547
243  -6.13625994661987 -1.75728441973067
244  -6.28897023933529 -1.79578707830488
245  -6.44374458088527 -1.81535072546031
246  -6.59217821911395 -1.81418729797527
247   -7.2882156772803 -1.60321148845427
248  -8.00619757772068 -1.53188189248365
249  -8.68561644498263   -1.293892609204
250  -9.17496683667944 -0.780642660689265
251  -9.35041224874025 -0.104701158787881
252   -9.0529632654722  0.95170535466634
253  -8.29649913169336  1.75324550784674
254  -7.37602018153788  2.35673741741306
255  -6.41043147629187  2.87818768582247
256   -5.4352850421344  3.37681543939867
257  -4.44182959860973  3.83898963458477
258  -3.40528546068587   4.2044484537608
259  -2.33650184862882  4.46755479850844
260  -1.24471416512119  4.61957534040485
