// Id               X                Y
  1  -0.0710635080776792 0.469655814602738
  2   0.92038247615979 0.475187086885999
  3   1.88618689653491 0.595815167531503
  4   2.82624406929961 0.806865659577013
  5   3.73985484314863  1.07891897023709
  6   4.63518167937404  1.37981126809763
  7   5.53020304380848  1.64666379701066
  8   6.43998060746384  1.78997476883893
  9   7.34086318844207  1.69497257730159
 10   8.12024491568923  1.27103975304793
 11   8.64304094071134 0.551798897924413
 12   8.75740983253476 0.0690285879930844
 13   8.69363276506948 -0.496269732891254
 14   8.26595735175558 -1.04447017839067
 15   7.60741199786082 -0.980295987445964
 16   7.73982862550397 -0.0843292882578616
 17   7.66995276923428 0.251819657263733
 18    7.4833131624726  0.43764793768226
 19   7.24332362707098 0.537396138728396
 20   6.99030850467382 0.573798630203637
 21    6.7473969172286 0.573647882427471
 22   6.52619517137149 0.556203059363252
 23   6.33400120178627 0.533657701241939
 24   6.15906546952036 0.510168554682963
 25    5.9924667057654 0.486888114437583
 26   5.83094137386365 0.464503907073946
 27   5.67280887538176 0.443376868037905
 28   5.51707717874265 0.423663861092622
 29   5.36312362412056 0.405396869173508
 30    5.2105430173451 0.388533108277871
 31   5.05906396308922 0.372987415645365
 32   4.90849937674305 0.358653476936768
 33   4.75871617064886 0.345417678647875
 34   4.60961633553465 0.333167908366808
 35   4.46112499306025 0.321798837450818
 36   4.31318278262193 0.311214763273481
 37    4.1657409730998 0.301330795122221
 38   4.01875830297943 0.292072961729133
 39    3.8721989241496  0.28337766338516
 40   3.72603105310331 0.275190770740653
 41    3.5802260754825 0.267466577503409
 42   3.43475793993246 0.260166740813342
 43   3.28960273524635 0.253259287992781
 44   3.14473838272482 0.246717728882322
 45   3.00014440068148 0.240520286322673
 46   2.85580171446105 0.234649240802523
 47   2.71169249599198 0.229090376293731
 48   2.56780002362982  0.22383251057842
 49    2.4241085571475 0.218867093077689
 50   2.28060322509645 0.214187854883863
 51   2.13726992303139 0.209790498342425
 52   1.99409522169422   0.2056724164324
 53   1.85106628448023 0.201832434931759
 54   1.70817079354499 0.198270572703758
 55   1.56539688386795 0.194987817315092
 56   1.42273308452944 0.191985914598456
 57   1.28016826641418 0.189267171751514
 58   1.13769159553881 0.186834274194966
 59   0.99529249121412 0.184690116773469
 60  0.852960588290373 0.182837650048284
 61   0.71068570278985 0.181279742462982
 62  0.568457800296863 0.180019059113515
 63  0.426266966545886 0.179057957759221
 64  0.284103379717174 0.178398402598161
 65  0.141957284012189 0.178041896215331
 66  -0.000181035865157 0.177989430004914
 67  -0.142321279653303 0.178241453271529
 68  -0.28447315620676 0.178797861129734
 69  -0.42664640818676 0.179658001242915
 70  -0.568850837056648 0.180820699367475
 71  -0.71109632868429 0.182284303590849
 72  -0.853392879882527 0.184046747067878
 73  -0.995750626260884 0.186105628966295
 74  -1.13817987181585 0.188458313228153
 75  -1.28069112075084 0.191102044643393
 76  -1.42329511208732 0.194034081623571
 77  -1.56600285770087 0.197251844974313
 78  -1.70882568448593 0.200753081920039
 79  -1.85177528141238 0.204536044670436
 80  -1.99486375228135 0.208599682983791
 81   -2.1381036750088 0.212943850538597
 82  -2.28150816826033 0.217569525542602
 83  -2.42509096623257 0.222479046963402
 84  -2.56886650233713 0.227676369126395
 85   -2.7128500025281 0.233167339241356
 86    -2.857057589088 0.238960004685955
 87   -3.0015063959646 0.245064959505321
 88  -3.14621469742283  0.25149574235895
 89  -3.29120205313275  0.25826930064226
 90  -3.43648947529777 0.265406537048991
 91  -3.58209962767173 0.272932954407867
 92  -3.72805707322911 0.280879410818079
 93  -3.87438859813178 0.289282988101123
 94  -4.02112365634991 0.298187960164789
 95  -4.16829500464819 0.307646821510299
 96  -4.31593963602741  0.31772129709905
 97  -4.46410017826688 0.328483200372547
 98  -4.61282701488787 0.340014933573944
 99  -4.76218152881001 0.352409330432944
100  -4.91224109818398 0.365768421075568
101   -5.0631068466702  0.38020054422648
102  -5.21491576497377 0.395815025179489
103  -5.36785985394919 0.412713343351063
104  -5.52221674876896 0.430975253043717
105  -5.67839971644544 0.450637530596299
106  -5.83704241563142 0.471661562935569
107   -5.9991538691754 0.493883255834355
108   -6.1664484724731 0.516934147456328
109  -6.34229065440093 0.540120728863234
110  -6.53603027759804 0.562286450607032
111  -6.75818378701244 0.579046686089219
112  -7.00152176673424 0.578277968448247
113  -7.25465541858086 0.540871439293664
114  -7.49450086424723 0.440145146119273
115  -7.68063543153363 0.253490620227236
116  -7.74938491951093 -0.0828563846179975
117  -7.61414559634127 -0.978179832039928
118  -8.27244495633225 -1.04908828327739
119  -8.70885631214726 -0.508280555872605
120  -8.78400914435157 0.0549120034783833
121  -8.68056666794196 0.539663487511009
122   -8.1746669353721  1.27031875516132
123  -7.40477805754492  1.70944349832261
124  -6.50691399798763  1.81731493194582
125  -5.59818786042965  1.68167629405044
126  -4.70543215816448  1.41777032338081
127  -3.81462448786751  1.11604206141136
128  -2.90780232199051 0.839713361893671
129  -1.97750089092856 0.621180304990474
130  -1.02660556269912 0.490585646207871
131  -0.0397092829125321  1.05360927210096
132  0.892366895035799   1.0889539338007
133   1.81742254708643  1.21200770742962
134   2.73401537183605  1.41987200161424
135   3.65076734282886  1.69051110958612
136   4.64155307011526  1.99805651198855
137   5.68076618280906  2.24688422629115
138   6.76702868728447  2.31643533997062
139   7.84225711126222  2.06328524390954
140   8.72513784342202  1.37330732245351
141    9.0925233465065 0.311466730145172
142   8.94957713342307 -0.408585270758562
143   8.53879707651004 -1.01742524287203
144   7.96009633753887 -1.47431254418668
145   7.32743943265982 -1.83034680792359
146   6.56496307999478 -2.26013191815614
147   6.41007192910127 -2.32182137224568
148   6.34743775631165  -2.3440689926021
149   6.28531866205744 -2.36478348470399
150   6.21637035978755 -2.38637853718664
151   6.12699053972087 -2.41243486628561
152    6.0094468987014   -2.443774633841
153   5.88553363822017 -2.47370738102962
154   5.75814328885278 -2.50161059043081
155   5.62858555427559 -2.52740057732076
156   5.49748688937927  -2.5511792596251
157   5.36523667891857 -2.57309217905554
158   5.23209775706736 -2.59329310863267
159   5.09825390885993 -2.61193138495474
160   4.96383664507989 -2.62914706510544
161   4.82894204104623 -2.64506937767501
162   4.69364178046365 -2.65981661995562
163   4.55799053031965 -2.67349665056326
164   4.42203092143117  -2.6862075764957
165   4.28579694675445 -2.69803845405159
166   4.14931630461587 -2.70906993312319
167   4.01261203135585 -2.71937482797001
168   3.87570365025791 -2.72901862163144
169   3.73860798801029 -2.73805991979805
170   3.60133976105693 -2.74655087086101
171   3.46391200208138 -2.75453756617959
172   3.32633637527538 -2.76206043065498
173   3.18862341417841 -2.76915460972462
174   3.05078270546376 -2.77585035551514
175   2.91282303471038 -2.78217341235454
176   2.77475250505043 -2.78814540015888
177   2.63657863601448  -2.7937841932624
178   2.49830844746573 -2.79910429188991
179   2.35994853189296 -2.80411718350118
180   2.22150511727019  -2.8088316915171
181   2.08298412200905 -2.81325430934217
182   1.94439120309739 -2.81738951803984
183   1.80573179824514 -2.82124008643803
184   1.66701116268687 -2.82480735280894
185   1.52823440118031 -2.82809148756633
186   1.38940649566778 -2.83109173665278
187   1.25053232901833 -2.83380664545493
188   1.11161670523376 -2.83623426319726
189  0.972664366476507 -2.83837232783411
190  0.833680007259637 -2.84021843149791
191  0.694668286125888 -2.84177016657728
192  0.555633835134321 -2.84302525249993
193  0.416581267467677 -2.84398164328801
194    0.2775151834709 -2.84463761594229
195  0.138440175430511 -2.84499183969843
196  -0.000639168594929235 -2.84504342618587
197  -0.139718261581826 -2.84479196050832
198  -0.278792514673271 -2.84423751325403
199  -0.417857334321583 -2.84338063343444
200  -0.556908119127127 -2.84222232234034
201  -0.695940256058665 -2.84076398829505
202  -0.83494911574072  -2.8390073822738
203  -0.973930046493551 -2.83695451434693
204  -1.11287836681121 -2.83460755089241
205    -1.251789355962 -2.83196869251073
206  -1.39065824239277 -2.82904003256422
207  -1.52948018961395 -2.82582339625662
208  -1.66825027923374 -2.82232016017019
209  -1.80696349079914 -2.81853105219434
210  -1.94561467808421 -2.81445593181701
211   -2.0841985414439 -2.81009355081909
212  -2.22270959581884 -2.80544129452194
213  -2.36114213392993 -2.80049490389962
214  -2.49949018413113 -2.79524817909067
215  -2.63774746228018 -2.78969266513347
216  -2.77590731681498 -2.78381732110369
217  -2.91396266594974  -2.7776081742368
218  -3.05190592546828  -2.7710479610414
219  -3.18972892490362 -2.76411575779335
220   -3.3274228088235 -2.75678660306072
221  -3.46497791831035 -2.74903111492597
222  -3.60238364528638 -2.74081510519738
223  -3.73962824876319  -2.7320991919695
224  -3.87669861695228 -2.72283841024699
225  -4.01357995185625 -2.71298181788245
226   -4.1502553425931 -2.70247209081844
227  -4.28670517892109 -2.69124509780957
228  -4.42290633499332 -2.67922944105452
229  -4.55883102155827 -2.66634594673427
230  -4.69444515653053 -2.65250709062437
231  -4.82970602939142 -2.63761635287712
232  -4.96455891938264 -2.62156752030139
233  -5.09893214830608  -2.6042440079903
234  -5.23272976865996 -2.58551838158634
235  -5.36582062926931  -2.5652524802605
236   -5.4980217011315 -2.54329898807164
237  -5.62907146424788 -2.51950630269432
238  -5.75858215159995  -2.4937312940139
239  -5.88592592679723 -2.46587542005177
240  -6.00976521868758 -2.43603250034524
241  -6.12725132258672  -2.4048158026945
242  -6.21629158259223 -2.37897386077332
243  -6.28518590121909 -2.35750785789341
244  -6.34726683350335 -2.33692667477641
245  -6.40986408422695 -2.31483081643308
246  -6.56491260498216 -2.25351043004727
247  -7.32924103174359 -1.82693810431965
248  -7.96378897652529 -1.47641882047251
249  -8.54729968874337 -1.02685283892685
250  -8.96758222648954 -0.425185081696739
251  -9.12461262214108 0.291640961530811
252   -8.7809338855925  1.36096580743737
253  -7.91254833966504   2.0687458123932
254  -6.84149665475606  2.33896460211499
255  -5.75449051800988  2.28041453006919
256  -4.71414723267855  2.03598696854876
257  -3.72391800113128  1.72741148457052
258  -2.80904824811529  1.45177848916528
259  -1.89443360093462  1.23558279922736
260  -0.96999934514136  1.10144260257514
