// Id               X                Y
  1  -0.00760310841644881 -0.227471131404184
  2  0.874199849555425 -0.174768168862801
  3   1.70902538402527 0.00159591538537875
  4   2.64102781143195 0.510996623080741
  5   3.44318840225468 0.848330390892526
  6   4.20423630361675  1.29718585239073
  7   4.95968650867267  1.74408619459272
  8   5.74580598257748  2.11817400200753
  9   6.57959943555427  2.35231583144683
 10   7.44227102392874  2.36705977613653
 11   8.27821603494104  2.11988381757599
 12   8.66188438876039  1.83306515799984
 13   8.93769530736778  1.39472382834898
 14   8.89557893926632 0.848860068171372
 15   8.40648069835816 0.555348928563501
 16   7.60495624355263  1.04042448815573
 17   6.93668790605036  1.53652904613924
 18   6.47334911937072   1.5110904421884
 19   6.26882049840439  1.42613599025045
 20   6.08345332242453  1.31138455484064
 21   5.91267802376113  1.18033388952428
 22   5.79405039360623  1.08233588473986
 23   5.67394804904395 0.981863167368479
 24   5.56104899163579 0.890042874633069
 25   5.44293808988025 0.799392411374188
 26   5.32043113041391 0.713082146606385
 27    5.1934692307006 0.632836761875789
 28   5.06188113902417 0.559578909002042
 29   4.92614261767415 0.493917971952125
 30   4.78783588704282 0.436287153174451
 31   4.64752297623867 0.386161700945923
 32   4.50643280854523 0.343075122643272
 33   4.36481222602883 0.306242498342794
 34   4.22311408418663  0.27510409295765
 35   4.08148341579545 0.249201457397245
 36   3.94003956468994 0.228220495379162
 37   3.79887625625794 0.211919713798096
 38   3.65806363488323 0.200064211313539
 39   3.51771512826001 0.192384823752251
 40   3.37777116278962  0.18855136910888
 41   3.23817289998721 0.188200080153937
 42   3.09892029946332 0.190949784315232
 43   2.96005284335032 0.196417506551328
 44   2.82162906507541 0.204233355363988
 45    2.6837191125474 0.214049737579193
 46   2.54639837818043 0.225544273630689
 47   2.40974386230235 0.238418143890245
 48     2.273829869888 0.252392636652533
 49   2.13872571573723 0.267205710012698
 50   2.00449430840938 0.282609639054131
 51   1.87119187043788 0.298369792210531
 52   1.73886851799059 0.314264095321871
 53   1.60756911093959 0.330082669499589
 54   1.47733581235839 0.345627053616337
 55   1.34821037472121 0.360709129738419
 56   1.22024290378975 0.375149166283233
 57   1.09349730129621 0.388774655585998
 58  0.968067076771429 0.401419164903373
 59  0.844046721456276 0.412927386486236
 60  0.721477458645393 0.423162718282107
 61   0.60019220045016 0.432019823470131
 62  0.479804943477014 0.439418215061804
 63  0.359826149792263 0.445286766312341
 64  0.239925828188356 0.449550205196685
 65  0.119973220067364 0.452139806090203
 66  -2.47439793646391e-05 0.453008322071629
 67  -0.120017657023936  0.45213938760421
 68  -0.239955638657748 0.449549732867628
 69  -0.359834410154431 0.445286862525704
 70  -0.479791202287122 0.439419420618022
 71  -0.600164526166382 0.432022142772832
 72  -0.721448048059916 0.423165580505842
 73  -0.844023911899991 0.412930200300218
 74  -0.968052632436195 0.401421744007343
 75  -1.09348913649247 0.388777142090278
 76   -1.2202384324136 0.375151745996822
 77  -1.34820783439323 0.360711878817864
 78  -1.47733429655284 0.345629927984661
 79   -1.6075682327886 0.330085557514745
 80  -1.73886815452728 0.314266873552308
 81  -1.87119201849711 0.298372368172758
 82  -2.00449502732287  0.28261197495803
 83  -2.13872710458918  0.26720782752018
 84  -2.27383207064146 0.252394598939467
 85  -2.40974706147798 0.238420014373502
 86  -2.54640281903643 0.225546047063803
 87  -2.68372505984697 0.214051247086731
 88  -2.82163678445317 0.204234150332744
 89  -2.96006245725667  0.19641672093311
 90  -3.09893187143907 0.190946002354541
 91  -3.23818636866884 0.188191288477425
 92  -3.37778721641934 0.188535089469096
 93  -3.51773500553657 0.192358613285469
 94  -3.65809008815046   0.2000266359248
 95  -3.79890883212079 0.211871319769176
 96  -3.94007330205574 0.228164595381908
 97  -4.08150799797948 0.249143991120808
 98   -4.2231262734528 0.275054159765398
 99  -4.36483270999185 0.306214144974568
100  -4.50644403565611 0.343070058505942
101  -4.64757612940241 0.386196261343597
102  -4.78781689966881 0.436318041033359
103  -4.92615484160239  0.49397727979229
104  -5.06179722884094 0.559599265576057
105  -5.19339991987828  0.63286362181251
106  -5.32038485150807 0.713114838339881
107  -5.44293956262918 0.799441454224251
108  -5.56108489288227 0.890091963298389
109  -5.67394101328516  0.98184282038782
110  -5.79399691130746  1.08223690941871
111  -5.91287122212706  1.18040491427021
112  -6.08339231464237  1.31120995212666
113  -6.26872941219617  1.42594259118792
114  -6.47322650731219  1.51090678528355
115  -6.93656722439328  1.53642608905491
116  -7.60485598371901  1.04036827600759
117   -8.4063964557543 0.555318429846243
118  -8.89548185340158  0.84883743807226
119  -8.93758942251141  1.39468277715079
120  -8.66178550949354   1.8330115394732
121  -8.27812203476835   2.1198304655357
122  -7.44218748071094  2.36702979139913
123  -6.57951739418779  2.35235000476989
124   -5.7457078659778  2.11829641869129
125   -4.9595725977334  1.74440499555307
126  -4.20440071816745  1.29887844745826
127  -3.45150050256262 0.854990359679143
128  -2.69381829330049 0.513881410076468
129  -1.87636334181406 -0.0124502472565543
130  -0.923710807427064 -0.175203570081882
131  -0.00230814794609808 0.384055337548485
132  0.870384203674845 0.439162272264472
133   1.71857838102816  0.62686463525916
134   2.53912029044046  1.05093699998328
135   3.32483185787367  1.45258321628506
136   4.10235451373629  1.90820139850458
137   4.90166593590993  2.35912638225228
138   5.76512353617101  2.73263239214266
139   6.77386488208962  2.93703528805952
140   7.83795461875379  2.80275103719491
141   8.74844409690796  2.22321147811903
142   9.12659842129498  1.64397477243994
143   9.25876457657528  1.02821551249039
144   9.23933623101784 0.538217079204529
145   9.20910760780774 0.119000935688009
146   9.35998624162645 -0.561994020391999
147   9.75180099999227 -1.79677073070316
148   9.75179808131784 -1.79677543503827
149    9.5746252677759 -1.99501235805719
150   9.25322314076199 -2.21464588096252
151    9.1524029525792 -2.28018921781631
152   8.97762850079362 -2.39504537302352
153   8.83644333274643 -2.49223773281236
154   8.68721336549624 -2.59907392869838
155   8.53797223869929 -2.70768020895525
156   8.38456836486689 -2.81754159162244
157    8.2247008764398 -2.92650934623496
158   8.05863217861069 -3.03122297188391
159   7.88708821266765 -3.12939682491053
160   7.71015214490269  -3.2204811112645
161   7.52890406542021 -3.30437828112409
162   7.34357294041001 -3.38195140967566
163   7.15526709245065  -3.4538291267478
164   6.96427624339755 -3.52087042016313
165   6.77067668424262 -3.58373887739438
166   6.57398207789185 -3.64298764466146
167   6.37376301120118 -3.69890438194979
168   6.16983124462554 -3.75156295666032
169   5.96230549645356 -3.80090975675118
170   5.75169488821367   -3.846825965185
171   5.53860022419144 -3.88924288921111
172   5.32351114670458 -3.92818328327004
173   5.10681087155318 -3.96373765455747
174   4.88880375230277 -3.99603842407638
175   4.66973965640141 -4.02524285169573
176    4.4498285656566 -4.05152461334236
177   4.22924967255117 -4.07506961325056
178    4.0081569866718 -4.09607259466356
179   3.78668260540422 -4.11473306138264
180   3.56493850643854 -4.13125068434616
181   3.34301736324156  -4.1458211082926
182   3.12099254061698 -4.15863289405693
183   2.89891763114178 -4.16986567747616
184   2.67682504417668 -4.17968908599904
185   2.45472521679794 -4.18826157810987
186   2.23260443526942 -4.19572864850034
187   2.01042670188156 -4.20221990136683
188   1.78813078955352 -4.20784559418496
189   1.56563955615423 -4.21269304426162
190   1.34286315315001 -4.21682507827046
191   1.11974399827827 -4.22028121213657
192  0.896272393317812 -4.22308379059428
193  0.672497329660292 -4.22524612771799
194  0.448478565080594 -4.22677931365659
195  0.224285770789364 -4.22769379356187
196  -1.24977243734996e-07 -4.22799754179753
197  -0.224286388641332 -4.22769349528442
198  -0.448480318900627  -4.2267785007528
199  -0.672500862939238  -4.2252444812978
200  -0.896277706409519 -4.22308106896001
201  -1.11975004134118 -4.22027740291432
202  -1.34286859563716 -4.21682041814698
203  -1.56564400102213 -4.21268789475868
204   -1.7881346377988 -4.20784029179072
205   -2.0104304136172 -4.20221467561135
206  -2.23260818483776 -4.19572361548895
207  -2.45472900655776 -4.18825677260331
208  -2.67682883346932 -4.17968450236462
209  -2.89892139428713 -4.16986130118333
210  -3.12099626883824  -4.1586287227108
211  -3.34302106010694 -4.14581717188108
212  -3.56494218182944 -4.13124707789129
213  -3.78668627512847 -4.11472999304588
214  -4.00816067083052 -4.09607043290334
215  -4.22925339501244  -4.0750688921324
216  -4.44983234931272 -4.05152594138586
217  -4.66974352713213 -4.02524667882429
218  -4.88880777096326  -3.9960446672492
219  -5.10681530353406 -3.96374524680508
220  -5.32351704110022 -3.92818975861903
221  -5.53861109181402 -3.88924404996408
222  -5.75172051664977 -3.84681547565916
223  -5.96236872162916 -3.80087823983814
224  -6.16997511970097 -3.75149660929147
225  -6.37404681882403 -3.69878554162513
226  -6.57444582798762 -3.64280380891321
227  -6.77126558146481 -3.58350628642064
228  -6.96480975977115 -3.52064996182372
229  -7.15550581243822 -3.45371252125717
230   -7.3434744703311 -3.38196947992722
231  -7.52854632773015  -3.3045138492068
232  -7.70988343159572 -3.22058003337517
233  -7.88694630703192 -3.12942445098624
234  -8.05872193147368 -3.03110290093685
235  -8.22480065294039  -2.9263708052447
236  -8.38452798042042 -2.81750595922179
237  -8.53784376718007 -2.70773380205434
238  -8.68713486515191 -2.59912653405606
239  -8.83655253409248 -2.49219701950915
240  -8.97779742031326 -2.39500545239578
241  -9.15166669787165   -2.280773751737
242  -9.25318894322998  -2.2147948558684
243  -9.57422222769146 -1.99540388774163
244  -9.75172468115997 -1.79688667127332
245   -9.7517275723482 -1.79688201086637
246  -9.35994436022509 -0.562041342710938
247  -9.20904711787003 0.119004842270275
248  -9.23926727516825 0.538219731282301
249  -9.25867725028492  1.02820285294613
250  -9.12650313885338  1.64392151248952
251  -8.74835456600403  2.22315030658924
252  -7.83789293150584  2.80270685954008
253  -6.77383573803638  2.93704636737203
254  -5.76523931775526  2.73273399869916
255  -4.90171650932012   2.3595101186675
256  -4.10183677839311  1.90974508117818
257  -3.32480280172499  1.45450896761247
258  -2.54487749876666   1.0425517469326
259  -1.74375813447639 0.600218126247697
260  -0.878706089298587 0.426431670046132
