// Id               X                Y
  1  -0.0462487209806292 -0.265781727662287
  2  0.792516316005617 -0.105897541936377
  3   1.41667077223881 0.571528277092578
  4    2.5681998820315 0.497414705490675
  5   3.44320573919576 0.830530864104605
  6   4.20695871860892  1.28913249267461
  7   4.96037447389613   1.7412951648195
  8   5.74625352035906    2.116509400156
  9    6.5804052187789  2.35140632186234
 10   7.44416140086913   2.3685012798137
 11    8.2813932397561  2.12311937691873
 12   8.66293954653379  1.83508669345046
 13   8.93221020063205  1.39710820839677
 14   8.89399548675111 0.850998668984455
 15   8.46154215085012 0.539009633832603
 16   7.66894023409432 0.973524596902595
 17   6.96605849391147  1.48624831068916
 18   6.49337049294909   1.4465921842758
 19   6.31154827560797  1.36173560856997
 20   6.14868906819861  1.25228547009067
 21   5.98689250901183  1.12024279443525
 22   5.86485163696082  1.01527475578917
 23   5.74340515434815 0.912500686714249
 24   5.62830641129096 0.820448315548808
 25   5.50652575848051 0.730457682419796
 26   5.38053400529276 0.645866514695618
 27   5.25028081118149 0.567228297616558
 28   5.11669604672845 0.495253683007823
 29   4.98008610122496 0.430004752838122
 30   4.84159772339832 0.371776068781217
 31    4.7012639828172 0.320249359123436
 32   4.56012247700535 0.275422158173946
 33    4.4181121667967 0.236850049134411
 34   4.27570586101447 0.204243137884336
 35     4.133015564443 0.177208873928813
 36   3.99033348955265  0.15540091105607
 37    3.8478524148757 0.138456319940141
 38    3.7057373766894 0.126011204624633
 39   3.56407327963503 0.117694658883197
 40   3.42278175743466  0.11313314237767
 41   3.28178325214642 0.111968034316061
 42   3.14108589311949 0.113852631154515
 43   3.00073769917376 0.118446097829723
 44   2.86080426925275 0.125413595032974
 45   2.72135906173164 0.134428534322427
 46    2.5824793310511 0.145175314667966
 47   2.44424219681902  0.15735197658155
 48   2.30672186297549 0.170672244934991
 49   2.16998763972908 0.184866666755918
 50   2.03410308270539 0.199682727644957
 51   1.89912555611261 0.214884121861521
 52   1.76510722723223 0.230249283700605
 53   1.63209601408037  0.24556959431425
 54   1.50014208278666 0.260646878361301
 55   1.36930498013179 0.275291071903771
 56   1.23968038692899 0.289316465304814
 57   1.11141240409455 0.302541226910026
 58  0.984705780679029 0.314789299555711
 59  0.859671733909089 0.325909526513159
 60  0.736139953154514  0.33579126488671
 61  0.613502948229933 0.344365413294292
 62  0.491110930415721 0.351561101652286
 63  0.368570678853448 0.357289369611154
 64  0.245831206002219  0.36145559843152
 65  0.122947209404958 0.363985672888891
 66  -9.35122234014341e-07 0.364834158471936
 67  -0.122949027521433 0.363986076623554
 68  -0.245832794120818 0.361456398293344
 69  -0.368571630787108 0.357290561791491
 70  -0.491110573533568 0.351562701953425
 71  -0.613500696503029 0.344367448747444
 72  -0.736136007402439 0.335793717202968
 73  -0.859667215731947 0.325912287869383
 74  -0.984701816699862 0.314792226270421
 75  -1.11140941426774 0.302544215860038
 76  -1.23967823474914 0.289319463650842
 77  -1.36930342228716 0.275294046629819
 78  -1.50014095908543 0.260649805912895
 79  -1.63209527953553 0.245572468278685
 80  -1.76510691273902 0.230252131170792
 81  -1.89912575191817 0.214887012194963
 82  -2.03410392966371 0.199685766605819
 83  -2.16998933111523 0.184869965393612
 84   -2.3067246340716  0.17067585560781
 85  -2.44424629237074 0.157355790624762
 86  -2.58248493166122 0.145178925680399
 87  -2.72136617199841 0.134431082983316
 88  -2.86081257976185 0.125413629364043
 89  -3.00074653686463 0.118441497933019
 90  -3.14109439762888 0.113840673012546
 91  -3.28179112597686  0.11194569101379
 92  -3.42279022999155 0.113097755624686
 93  -3.56408507539538 0.117645001612421
 94  -3.70575207739352 0.125948472841629
 95  -3.84786061632653 0.138384340365515
 96  -3.99031950375666 0.155325861204042
 97  -4.13298169233468 0.177141389472803
 98  -4.27567235995618  0.20419778168763
 99  -4.41812946888119 0.236847252152242
100  -4.56016292317319 0.275459102449121
101   -4.7013711040776 0.320337042897365
102  -4.84160640823348 0.371846209363393
103  -4.98010067850477 0.430083151826189
104   -5.1165973483182 0.495272366457618
105  -5.25020501759722 0.567245395382936
106  -5.38049762785408 0.645891372439156
107  -5.50652075021851  0.73048641981091
108   -5.6282924398378  0.82045103952944
109  -5.74339552052312 0.912486334630041
110  -5.86471329363163  1.01512607289917
111  -5.98703300703111  1.12031562122832
112  -6.14861344376619  1.25214465112199
113  -6.31158781150392  1.36165853566305
114  -6.49331498146302  1.44645468924756
115     -6.96599202828  1.48612629741065
116  -7.66886366150923 0.973445791471812
117  -8.46147012297237 0.538962569760624
118  -8.89390666911724 0.850969604143557
119  -8.93210600410016  1.39706487169749
120  -8.66284125798326  1.83503202730755
121  -8.28130063373141  2.12306628704018
122  -7.44408711751025  2.36846688170955
123  -6.58040139462798  2.35141144723137
124  -5.74669991620204  2.11695616440132
125  -4.96381734230002  1.74479600529996
126  -4.23059975076328  1.30293715595651
127  -3.54426581266891  0.85546721326929
128  -2.83789453199013 0.519905832173013
129  -2.07001546474592 0.497528613839119
130  -1.03061032036114 -0.0737539485543506
131  0.00312032461245761 0.362410223718086
132  0.868214769632033 0.496241017165446
133   1.88151670152726 0.855083808617344
134   2.61250683366227  1.10768280209246
135   3.35515808500613  1.45165863996821
136   4.11162716552156  1.90121855511308
137   4.90394569313417  2.35683372092415
138   5.76610950541581  2.73175563722453
139    6.7747219219072  2.93726701682155
140   7.84072731822742  2.80935102557069
141   8.75456452179532   2.2292513287897
142   9.11813481536949  1.64208704370166
143   9.24732248737027  1.02829726216121
144   9.25477443600525 0.549759145376011
145   9.25574624372226 0.135169385931586
146   9.41405155107936 -0.572578159764515
147   9.56653214007834 -1.71792078418589
148   9.56653179724134 -1.71792146140418
149   9.43738135114699 -1.91121206502284
150    9.2492510198617 -2.10340071013417
151    9.1162788449913 -2.21575306989886
152   8.95562989649366 -2.33796226167461
153    8.8048200187074 -2.44570683819317
154   8.64522299898035 -2.55539242012343
155    8.4876376234186 -2.66040138459488
156   8.32776914730319 -2.76346736766983
157   8.16499821481646  -2.8641098566147
158   7.99813103188089 -2.96193246742643
159   7.82712480009759 -3.05587058237234
160   7.65148553800531 -3.14535423749904
161   7.47187502393195 -3.22955615638189
162   7.28802965907478 -3.30845763678403
163   7.10093802250262 -3.38178440772943
164   6.91093129832917  -3.4497874928776
165   6.71838058080927 -3.51281536931449
166   6.52294685497987 -3.57145607586491
167   6.32416831856253 -3.62624111429928
168   6.12170069818067 -3.67755278609887
169   5.91561334729528 -3.72556610793455
170   5.70642469563534 -3.77028978915017
171   5.49477003351171  -3.8116882876633
172   5.28114995748704 -3.84975952558677
173    5.0659465875225  -3.8845444972189
174   4.84946020598527 -3.91612876145906
175   4.63193948497721 -3.94463898906708
176   4.41359487549968 -3.97023624875603
177   4.19460688138595 -3.99310623871017
178   3.97513016923815 -4.01344909305046
179   3.75529665319672 -4.03147049771994
180   3.53521734435667 -4.04737519700705
181   3.31498372675676 -4.06136286302269
182    3.0946679562974 -4.07362576603044
183   2.87432336130583 -4.08434726179495
184   2.65398282117894 -4.09370038012181
185   2.43366035528046 -4.10184562904539
186   2.21334460760675 -4.10892821808837
187   1.99299967582272 -4.11507421968722
188   1.77253870684299 -4.12038752733041
189   1.55185128447609 -4.12494687934991
190   1.33083529723712 -4.12880700168868
191   1.10951569788882 -4.13200344291111
192  0.887950897134086 -4.13456388088992
193  0.666193091189288 -4.13651501263517
194  0.444250536513799 -4.13788385337391
195  0.222164710545798 -4.13869405449406
196  -1.41452481300956e-06 -4.13896198779047
197  -0.222167593713284 -4.13869350107659
198  -0.444253577939511 -4.13788273905543
199  -0.666196392756981 -4.13651332743774
200  -0.887954560650084 -4.13456162165532
201  -1.10951975638854 -4.13200062571184
202  -1.33083958295869  -4.1288036737473
203  -1.55185548887716  -4.1249431195905
204   -1.7725426849304 -4.12038342821621
205  -1.99300349411111 -4.11506986533335
206  -2.21334837437334 -4.10892367438724
207  -2.43366410770462 -4.10184094911412
208  -2.65398656076485 -4.09369562268256
209  -2.87432707994264  -4.0843425231392
210   -3.0946716554795 -4.07362121831938
211  -3.31498741167183 -4.06135878683957
212   -3.5352210187222 -4.04737198844839
213  -3.75530030742212 -4.03146862952816
214  -3.97513377232992  -4.0134490130938
215  -4.19461037486287 -3.99310820349114
216  -4.41359819507109  -3.9702401087227
217  -4.63194262105447 -3.94464396788633
218  -4.84946341769071   -3.916133278232
219  -5.06595087475859 -3.88454608041721
220  -5.28115842185898 -3.84975475595741
221   -5.4947907710913  -3.8116725937875
222  -5.70647720317964 -3.77025649051813
223  -5.91573682817643  -3.7255045165302
224  -6.12195767204646 -3.67744637352147
225  -6.32461677086211 -3.62607275010414
226  -6.52357317086729 -3.57122622384642
227  -6.71902693870667 -3.51256937848353
228  -6.91135078601514  -3.4496109455091
229   -7.1009178325464 -3.38176953211441
230  -7.28763259989742 -3.30860416720567
231   -7.4712702382469 -3.22980988054936
232  -7.65108990256561 -3.14552147023774
233  -7.82696355486235 -3.05591763770269
234  -7.99827322670384 -2.96180263774855
235  -8.16517943743473 -2.86394716530856
236  -8.32785867058761 -2.76336067112639
237  -8.48767528406546  -2.6603364927919
238  -8.64530653778107 -2.55530990780786
239  -8.80493401342084 -2.44561700856736
240  -8.95587843539301 -2.33778381450952
241  -9.11594669983421 -2.21602442284885
242  -9.24913077835142 -2.10351917953898
243  -9.43686540132793 -1.91179272421601
244  -9.56630238703766 -1.71822894260983
245  -9.56630272972632 -1.71822826598554
246  -9.41392282384065 -0.572670046308609
247  -9.25566796407824 0.135129520572419
248  -9.25470999653223 0.549743948228178
249  -9.24725129402404  1.02828418524781
250  -9.11804819152434  1.64203669273015
251  -8.75447694724423  2.22919115053526
252  -7.84066682380767  2.80930318132595
253  -6.77470769931545  2.93720658483173
254  -5.76626383568072  2.73186869884754
255  -4.90335577337665  2.35851483858923
256  -4.10667999962032  1.90490402481345
257  -3.33084515557499  1.44194326129614
258  -2.52257929047501  1.05982264453709
259  -1.60417398215146 0.785347674964485
260  -0.837893771212889 0.491824209169596
