// Id               X                Y
  1  -0.476878355456014  9.82002872965262
  2   0.67620693531572   9.6967028564564
  3   1.75234858689872  9.32357171989604
  4   2.79036776580221  8.83071125859141
  5   3.79642537531319  8.29397556450254
  6   4.73598495923018  7.67295328766831
  7   5.57116515314636  6.93855484963952
  8   6.27183815976078  6.08904983968531
  9   6.86001434571129  5.16992897423703
 10   7.48158945697263  4.27274501897681
 11   8.15980564401445  3.40852317896753
 12   8.60921271421719  2.88016744744072
 13   9.03290642392142  2.33427351886211
 14   9.33040617630166  1.73133829324487
 15   9.33599605714093  1.17390101530645
 16   8.86771146612586 0.620913744061707
 17   8.28402282364649 0.526036267443149
 18   8.20895537104937 0.536305107794935
 19   8.14183042201569 0.549896333869334
 20   8.07397942341618 0.568096878126736
 21   8.00386402319474 0.591754185837862
 22   7.92683702939597 0.623848490073645
 23   7.83980159875469 0.668376845333512
 24   7.74288311315292 0.729433307930552
 25   7.63872870682381 0.810546063926517
 26   7.53141445137917 0.914355004886443
 27   7.42552244346183  1.04243094776491
 28   7.32546678276082  1.19522920486219
 29   7.23499619173487  1.37212524549397
 30    7.1568065626975  1.57150116774435
 31   7.09224006983994  1.79088622390193
 32   7.04110539409679   2.0272009212957
 33   7.00169426673097  2.27717131645868
 34   6.97104603180365  2.53786032001095
 35   6.94539899515632  2.80697974197847
 36   6.92066545109756  3.08265134552415
 37   6.89282713735409  3.36290357462325
 38   6.85824795021943    3.645578234808
 39   6.81384690169002  3.92884165555072
 40   6.75706252299874  4.21167075676975
 41   6.68569820411845  4.49376288398211
 42   6.59778491006237  4.77513785573925
 43   6.49150669210092  5.05581661649211
 44    6.3651829902321  5.33564955575005
 45   6.21730281758842  5.61423419211436
 46   6.04661754898348  5.89086892112578
 47   5.85230544701908  6.16451972164748
 48   5.63419449155545  6.43382520240499
 49   5.39291806794148  6.69725011156759
 50   5.12983372806217    6.953423403907
 51   4.84678163515567  7.20142902694116
 52   4.54587615481424  7.44087863915292
 53   4.22941145727492  7.67179792332297
 54   3.89994517986706  7.89436002513465
 55   3.56066949454879  8.10845153725809
 56   3.21606392294073  8.31312546477222
 57   2.87123057692462  8.50686608640563
 58   2.52483439293097  8.69109740579871
 59   2.17359957569675  8.86694738117843
 60    1.8200381274678    9.031307924503
 61   1.46745077479116  9.17990149180056
 62   1.11797340440424  9.30846366962569
 63  0.775361993054411  9.41213190236515
 64  0.466121475808817  9.48254380410564
 65  0.202989752449877  9.52201006733486
 66  -0.0122635737099506  9.53832391485322
 67  -0.200678248748092  9.53979623177303
 68  -0.411799537785803  9.52717254055864
 69  -0.670917430768942  9.49253313546306
 70  -0.977821352840982  9.42748444464014
 71  -1.32055259496396  9.32866411771516
 72  -1.67209586392824  9.20362777085408
 73  -2.02845515875611  9.05701583926348
 74  -2.38772256163623  8.89289531706929
 75  -2.74687003877963  8.71542066303499
 76  -3.10225484826128  8.52838665467444
 77  -3.45283172469642  8.33332322364696
 78  -3.80169808758774  8.12826840797235
 79  -4.14702658863602  7.91300414181963
 80  -4.48397090154809  7.68871453081844
 81   -4.8087463677608   7.4559062771804
 82  -5.11856808849946  7.21455633966821
 83   -5.4111225259644  6.96458611727943
 84  -5.68432476986704  6.70619553396404
 85  -5.93630619377631  6.44004479426347
 86  -6.16553933998169  6.16729019111308
 87  -6.37103724697411    5.889445344084
 88  -6.55253540405491  5.60807472240825
 89  -6.71050168838575   5.3245042039183
 90  -6.84596499125669  5.03971643620451
 91  -6.96031935104581  4.75436567284822
 92  -7.05519043616263  4.46882392271899
 93  -7.13236785936448  4.18324991810612
 94  -7.19379390211564  3.89771065718478
 95  -7.24160711574911  3.61239632144627
 96  -7.27824299081929  3.32791966361579
 97  -7.30656895656298   3.0455259051632
 98   -7.3299669354329  2.76695945317778
 99  -7.35225923740695  2.49410792676724
100  -7.37746941352584  2.22889409309816
101  -7.40946757477578  1.97353729111314
102  -7.45151974365241  1.73080117032049
103  -7.50580276013138  1.50387025827936
104  -7.57302958671603  1.29593281084147
105  -7.65229989241341  1.10974486508256
106  -7.74118693888153 0.947304661322703
107  -7.83601923222309 0.809622695232198
108  -7.93234214546447 0.696547514069734
109   -8.0256097161956 0.606636763948406
110   -8.1122003723925 0.537096638559575
111  -8.19075605164451 0.483856889416442
112  -8.26330867070234 0.442013300275274
113  -8.33427047563368 0.407240060308839
114  -8.40550672041264 0.377967492125398
115  -8.48505256742251 0.351491784696151
116  -9.08602056189831  0.33576516620002
117  -9.64232652873893 0.802858252221598
118  -9.70957333521376  1.33566123444294
119   -9.4758865435087  1.95060005536511
120  -9.08638579800173  2.51043660965615
121  -8.65775933512567  3.04003583376355
122  -7.99198990086531  3.89366111424587
123  -7.38592712474556  4.76563240585809
124  -6.85203169245644  5.62545209947476
125   -6.2316759255425  6.49254928508443
126  -5.41358203486223  7.26902441702977
127  -4.52944172440121  7.98524851583375
128  -3.59433619091691  8.59785391381287
129  -2.59976108436806  9.10512082184594
130  -1.55510807488548  9.51656837223073
131  -0.275938666241359  10.3481047073229
132  0.845735641722685  10.2469398466062
133   1.91227770563981  9.89570940955326
134   2.92722662067673  9.42007243157384
135   3.90324044827318  8.87199421512235
136   4.83097167681315  8.24519068244827
137   5.67953414124265  7.50618997308626
138   6.42654312528203   6.6536490583963
139   7.09772981271036  5.74063352569707
140   7.75355490731346  4.83043221679453
141   8.42226911972137  3.94732159347175
142   8.83838753279136  3.37973357497781
143   9.23650029936581  2.79886707710106
144   9.61208922380628  2.19131003011873
145   9.96919822892534  1.57522401097002
146   10.3218984231412  0.97612733520596
147   10.8274036945092 -0.266361454814877
148    10.758595765513 -0.782046198883495
149   10.5759319592323  -1.2025840738186
150   10.3163375678528 -1.54094161367877
151   10.0032398570053 -1.80237682834397
152   9.65691563929279 -1.98978526331953
153   9.29560580960995 -2.10767730565153
154   8.93225101129158 -2.16315849997186
155   8.57401064412642 -2.16364452735442
156   8.22417851549767 -2.11501405829874
157   7.88435281813148 -2.02117066815185
158   7.55594433087443 -1.88451248161769
159   7.24095903119142 -1.70677752159001
160   6.94220446260096 -1.48997168229977
161   6.66304862687618 -1.23720275329463
162   6.40684418866823 -0.953246505746396
163   6.17619162844755 -0.644671969440425
164   5.97229290451147 -0.319440954670427
165   5.79461152260864 0.0139838931430236
166   5.64092196502957 0.347871167328725
167   5.50773006456013  0.67637830693009
168   5.39093934431775   0.9960262792645
169    5.2865349952131  1.30520454060573
170   5.19103195776739  1.60322873312608
171   5.10159732189215  1.88974344807451
172   5.01598864192006  2.16457196010747
173   4.93245166586338  2.42772681892296
174   4.84962059703078  2.67943077244611
175   4.76641784970505  2.92013665436972
176   4.68194146436949  3.15057167484211
177    4.5953235716166  3.37183403438015
178    4.5055494341915  3.58553338819656
179   4.41128698351912  3.79382660832382
180   4.31082054428286  3.99918267980037
181   4.20205975312047  4.20404178763765
182   4.08253678352155   4.4105724851168
183   3.94937107905943  4.62052155100449
184   3.79915729263834  4.83516923842228
185   3.62764564532479  5.05546642037685
186   3.42925293252771  5.28210775847937
187    3.1986295376893  5.51329682922832
188   2.94001718834927  5.73757955658452
189   2.66164779515571  5.94391357672265
190   2.36608861825107  6.12891443336639
191   2.05565805096875  6.29051670294738
192   1.73404510322205   6.4270040825942
193   1.40264156941276  6.53854667262276
194   1.03937327673152  6.63070921407542
195  0.627999868887348  6.70160382078799
196  0.149581372551879   6.7454186464418
197  -0.379625816844762  6.75195225230954
198  -0.867621494203769  6.71950325453063
199  -1.28825179048598  6.65775246213267
200  -1.66006377450265  6.57308793975325
201  -2.00000630369372  6.46766067328958
202  -2.33086749663312  6.33613281330041
203  -2.65136370526376  6.17799380772533
204  -2.95710602807969  5.99497050171729
205  -3.24481581514326   5.7896060307938
206  -3.51263648522376  5.56464691805601
207  -3.75659454723714   5.3261723490787
208  -3.96918278710401  5.08729750074555
209  -4.15112187629023  4.85547794473666
210  -4.30848149309519   4.6308025819413
211   -4.4464636363001  4.41205880303206
212  -4.56899501431044  4.19792449967065
213  -4.67922380690026   3.9867993108127
214  -4.77978211234311  3.77671167069653
215  -4.87288685534004  3.56538620039709
216  -4.96038434751864  3.35039849448191
217  -5.04377189360949  3.12941060923108
218  -5.12422381690549   2.9004616766616
219  -5.20268885663113  2.66212081244056
220   -5.2800573713475  2.41341607402098
221  -5.35732234657113  2.15370616283928
222  -5.43570697430222  1.88260044813208
223  -5.51677154374018  1.59992188763657
224  -5.60251253689702  1.30568991655545
225  -5.69545869983356  1.00012241564655
226  -5.79874705144074 0.683727172203311
227  -5.91610603177343 0.357658377307666
228  -6.05162516899502 0.0244117266186647
229  -6.20926923810011 -0.311527583281345
230  -6.39225748018862 -0.643649100738342
231  -6.60250923083336  -0.9640969776655
232  -6.84034627610009 -1.26471712619515
233  -7.10457450734209 -1.53804979577595
234  -7.39294877787086 -1.77797063060054
235  -7.70285541713989 -1.97980484536144
236  -8.03192769299505 -2.13988725935011
237  -8.37830903727036 -2.25469521583813
238  -8.74030868336319 -2.31977381745654
239  -9.11518892819606 -2.32878516237739
240  -9.49695067714508 -2.27328355666074
241  -9.87378126629651 -2.14404819240968
242  -10.2275688289699 -1.93370379817817
243  -10.5373075669948 -1.63684268907391
244  -10.7794523792003 -1.24558472970033
245  -10.9177909574009 -0.743631148666136
246  -10.5975738040343 0.508415887838468
247  -10.3150138789899  1.13893351670552
248  -10.0172105493653   1.7821285511613
249  -9.68687817130717  2.41098725971087
250  -9.32119445516042  3.00333813762778
251  -8.92698154253261  3.57268927234492
252  -8.27064511847935  4.44838691070425
253  -7.61283963605969  5.34199398163911
254  -6.93630706445565  6.23901040830962
255  -6.19586670589841  7.10109139044148
256  -5.36987147813078  7.88386235306553
257  -4.46723579915551  8.58591430296497
258   -3.4981967072374  9.19416115898965
259  -2.47448723783021  9.70578595792273
260  -1.40174187139386  10.1121050216454
