// Id               X                Y
  1  -0.569787646227317  9.99269632597869
  2  0.585345337916934   9.9710805603304
  3   1.67203613744831  9.60674188215391
  4   2.70424152442497  9.11778044636885
  5   3.68703404861606  8.53781039020311
  6   4.61342120498499  7.85846726991832
  7    5.4957345166011  7.10388118144255
  8   6.22346327130234  6.25315199134833
  9   6.79458333389547  5.34843655917793
 10    7.3978082117124    4.454810401497
 11   8.05721726364689  3.58496953852858
 12   8.49698411844431  3.05398417269131
 13   8.91985881175831  2.50943968362286
 14   9.23967475805889  1.91337953919257
 15   9.28574337489423  1.30519237496572
 16   8.85760821095905 0.725438961480878
 17   8.30269245559589 0.591545094825847
 18   8.22798978559127 0.595980917851822
 19   8.15979237156713 0.604549529076959
 20   8.09018958688078 0.617945800028189
 21   8.01785978306175 0.636946593306593
 22   7.93839228222442 0.664186108545403
 23   7.84868993941215 0.703471642479225
 24    7.7487563191391  0.75900596073747
 25   7.64117227111413 0.834632993715491
 26   7.53008845943146 0.933399198430987
 27   7.42031883046222    1.057282480783
 28   7.31664753346287  1.20708372404408
 29   7.22329033555731  1.38241389065916
 30   7.14344047322582  1.58173494140719
 31   7.07887279987692  1.80245755497525
 32   7.02965510674562  2.04116644753142
 33   6.99408430291976  2.29410904932048
 34   6.96895775458404  2.55797833479611
 35   6.95012511228628  2.83051836047305
 36     6.933059308519   3.1102282860453
 37   6.91327914117872  3.39540199627635
 38   6.88671037274919  3.68359690682658
 39   6.84996450137357  3.97234628923461
 40   6.80031655891368  4.26033050078135
 41   6.73546904744274  4.54737054743171
 42    6.6533631584387  4.83371663883749
 43   6.55209394694308  5.11955915141905
 44   6.42989481473287  5.40483455602498
 45   6.28517813498427  5.68915861428643
 46   6.11664289907705  5.97178933843606
 47   5.92346732541068  6.25159236044098
 48   5.70555195130512  6.52706775603893
 49   5.46363389734649  6.79658727479462
 50   5.19914269624304  7.05878914116163
 51   4.91395183909756  7.31284102908643
 52   4.61017656317867  7.55848481659888
 53    4.2900674018159  7.79592023250045
 54   3.95605262967656   8.0255543280631
 55    3.6110174769943  8.24760101606286
 56   3.25892282031785  8.46150159366539
 57     2.905257664144  8.66549764969385
 58   2.55310252966986  8.85863376152721
 59   2.19810972663837  9.04282130561962
 60   1.84049681299359  9.21596082578957
 61   1.48366185324528  9.37325713093662
 62   1.12985037943591  9.50984075509883
 63  0.780510372683815  9.62090677215333
 64  0.465352987799439   9.6961226800773
 65  0.200912897340423  9.73748355442483
 66  -0.0114511162977222  9.75422171881284
 67  -0.193427016349324  9.75584947152354
 68  -0.401588360797267  9.74325701808632
 69  -0.662381308923554  9.70734318751952
 70  -0.975890747901905  9.63819700911132
 71   -1.3260603989952  9.53265767935142
 72  -1.68275022467897  9.40008596281759
 73  -2.04451317086759  9.24496951293151
 74  -2.40934146227147   9.0719404092497
 75  -2.77375418324141  8.88585206093269
 76  -3.13452373703395  8.69060901446675
 77  -3.49334367614055   8.4862276869976
 78  -3.85165461599542  8.27141869846415
 79  -4.20463464380445  8.04760677775574
 80  -4.54754047942192  7.81586305625846
 81  -4.87705133397126   7.5762958908608
 82  -5.19063093504102  7.32858574002774
 83  -5.48606569133425  7.07245163696688
 84  -5.76129740780173  6.80795208908524
 85  -6.01444561360228  6.53565380217078
 86  -6.24394595031866  6.25667147980407
 87   -6.4487509281521  5.97255213866577
 88  -6.62852921371286  5.68497851608174
 89  -6.78372901252908  5.39541531228081
 90  -6.91542983351273  5.10493162764326
 91   -7.0251222011021  4.81419964048787
 92  -7.11454663090599  4.52354740475405
 93  -7.18561189020584   4.2330322702672
 94   -7.2403808042111  3.94257451265925
 95  -7.28112142697733  3.65223476701962
 96  -7.31043389427944  3.36266872335099
 97   -7.3314317249498  3.07545313392893
 98   -7.3478414815587  2.79272997987237
 99  -7.36386835284687  2.51649594645368
100   -7.3838824230163  2.24852470394184
101  -7.41202344411058  1.99093487379573
102  -7.45170310162245  1.74659667345367
103  -7.50506965939998  1.51889623593698
104  -7.57263337879896  1.31115783342024
105  -7.65317361881815  1.12614802430978
106  -7.74390143363433 0.965760897706849
107  -7.84080666351424 0.830816196248413
108  -7.93916693516384 0.720913184717572
109  -8.03427205170521 0.634334827937719
110  -8.12245750599228 0.568037974654047
111   -8.2024312419812 0.517806157062524
112  -8.27632642818773 0.478777702172066
113  -8.34856715126861 0.446841795434678
114   -8.4209520835082 0.420540436200881
115  -8.50107354795866 0.397646381255748
116  -9.08790541481908 0.407667754256452
117  -9.62289865131824 0.893326448098356
118  -9.68032490888062  1.43603717696404
119   -9.4425814575853  2.05664035879913
120  -9.05957108690821  2.62429744408064
121  -8.64223419602976  3.16759848077621
122   -8.0028565659289  4.04780060617601
123   -7.4197323975045  4.94630106256951
124  -6.88294307209155  5.84395520828808
125  -6.25801012713297  6.71080039148544
126   -5.4621000076221  7.45627498245627
127  -4.56163549139418   8.1155317577231
128  -3.65345873660355  8.73992665706436
129  -2.66329521746533  9.23165105455218
130   -1.6259359166081  9.64774061158527
131  -0.273808273437142  10.4821149423259
132  0.864141656411826  10.4660131559026
133   1.93646437878147  10.1437751622784
134   2.94417429436482  9.66058903864119
135   3.89880154570574  9.08178355281069
136   4.79658368322162  8.41677406923311
137   5.62686085500772  7.66822201048573
138   6.37040293498183    6.821145213015
139    7.0415208061074  5.91403083605981
140   7.69034734917992  5.00178779388272
141   8.34968747883587  4.11204307008628
142   8.76205128540592  3.54037685567063
143   9.15900097571422   2.9570245820725
144   9.53537172378994   2.3494264406321
145   9.89570622522916  1.73244055839303
146   10.2528810391636   1.1347353001544
147    10.840171796467 -0.230048774091488
148   10.7637482625677 -0.751182379489403
149   10.5758610260784 -1.17187248274474
150   10.3142869628906 -1.50836915949489
151   10.0021235018353 -1.76790506887781
152   9.65886498114805 -1.95448424033061
153   9.30181499865484 -2.07309019908196
154   8.94306207494051 -2.13084816053674
155   8.58906376701616 -2.13493929058704
156    8.2425489238179 -2.09085311475034
157   7.90468900913481 -2.00197679334773
158   7.57663384737837   -1.870077119923
159   7.26033804076462 -1.69617788564204
160    6.9588114594048  -1.4815617271328
161   6.67589247430042 -1.22872760043668
162   6.41561778266554 -0.942105170557875
163   6.18135128909116 -0.628298163561383
164   5.97497723549867 -0.295741290733681
165    5.7964378035541 0.0462032654253538
166   5.64370012304426   0.3886609941559
167   5.51314850459829 0.724822195010517
168   5.40030302877289  1.05089414887359
169   5.30067617548225  1.36561118548352
170   5.21043491443555  1.66867998754792
171   5.12655129916663  1.95987265870057
172   5.04666522125707  2.23900558160257
173   4.96893863788981  2.50607960549717
174   4.89194440435779  2.76133581461164
175   4.81456221954142  3.00527500802425
176    4.7358588451142  3.23870822900266
177   4.65493113135339  3.46288167566117
178   4.57070992311518  3.67963586327389
179   4.48180262512298  3.89137656900287
180   4.38644399329283  4.10076940974579
181   4.28248458705681  4.31042142935963
182   4.16736558704758  4.52265739330126
183   4.03808797423364  4.73933641513018
184   3.89115315178365  4.96172180954815
185   3.72236683251106  5.19050503398511
186   3.52635711739555   5.4260032071059
187    3.2966875045559  5.66737111431145
188   3.03237484000247  5.90659617290965
189     2.744229712368  6.12804063041832
190   2.43843365414812  6.32516206231538
191   2.11784657596549  6.49600595641271
192   1.78669434807751  6.63912117447253
193   1.44916194244169  6.75441083635741
194   1.08007905969013  6.84932215957756
195  0.659262115969557  6.92281873037403
196  0.163948467367945  6.96889307790751
197  -0.393010218256717  6.97643676801435
198  -0.898864536157706  6.94335787051565
199   -1.3291914417919  6.88034835927254
200  -1.70706497578103  6.79409947223606
201  -2.05381830728762    6.685913296389
202  -2.39518906617061  6.54869152133761
203  -2.72680701546307  6.38218689444834
204   -3.0435814380375  6.18794500761357
205  -3.34200629219324  5.96818564145768
206   -3.6189530874277   5.7263445388587
207  -3.86577428139061  5.47383907292507
208  -4.07609876041477  5.22538983360296
209  -4.25497267065373   4.9849026646795
210  -4.40893744139365  4.75200759642486
211  -4.54299030647556  4.52589261323278
212  -4.66104189855253   4.3054367058052
213   -4.7663384479461  4.08901508116648
214  -4.86162011707285  3.87452271132628
215  -4.94918479079853  3.65951497346425
216  -5.03093399024759  3.44138584070316
217  -5.10841467031509  3.21758423705735
218  -5.18285856303226  2.98589655836281
219  -5.25526563671831   2.7446671434177
220  -5.32656479905052   2.4927764514227
221  -5.39778842694698  2.22949510022567
222  -5.47021352951375  1.95437873819156
223  -5.54547668870052  1.66722115668888
224  -5.62568001602946    1.368028190148
225  -5.71350224082494  1.05698128578714
226  -5.81230703573187 0.734460873381212
227  -5.92614529394938  0.40145100757225
228  -6.05944657458799 0.0605493043237752
229  -6.21637093614163 -0.283141633757364
230  -6.40007127681359 -0.622173636635614
231  -6.61212963602328 -0.947841050644884
232  -6.85233836884917 -1.25150783273969
233  -7.11890637778508 -1.52566400466617
234  -7.40906190523578 -1.76449545677121
235  -7.71983910016106 -1.96386060697346
236  -8.04872828674842  -2.1207017098121
237  -8.39391487866338 -2.23206728365038
238  -8.75388337750337 -2.29398285702306
239  -9.12615024435991 -2.30049355110317
240  -9.50500939095916 -2.24346586511302
241  -9.87898199527766 -2.11395745392067
242  -10.2304039243932 -1.90483261662743
243  -10.5389448543201 -1.61079233692225
244  -10.7821091528051 -1.22369804465024
245  -10.9251535409919 -0.726291618833984
246  -10.5679098704866 0.612874851070337
247  -10.2849006842639   1.2408473888006
248  -9.98726572434405   1.8846142843222
249  -9.66078147594535  2.51664020108326
250  -9.30239702575569  3.11765009934083
251  -8.91844873918105  3.70052924402933
252   -8.2850810966482  4.60098611570257
253  -7.65266946412062  5.52112846422992
254  -6.99578925522202  6.44160830045728
255  -6.25497559735706  7.30124926285801
256  -5.41379459079922  8.06364795234048
257  -4.49322491650116  8.73082912242859
258  -3.51211493298132  9.32277918551809
259  -2.47867426359029  9.81960148165098
260  -1.39911750108443  10.2204941475291
