// Id               X                Y
  1  -0.113877595653787  12.8842975322489
  2   1.00667833706337  12.6368191488269
  3   2.03673905233127   12.123156829723
  4   2.99754821094357  11.4932747203233
  5   3.92764723524703  10.8215280605982
  6   4.80287343263941  10.0988925005563
  7   5.62766863949479  9.34159372656741
  8   6.42230365684346  8.53186201895983
  9   6.92660318512633  7.53114336063447
 10   7.32885711097248   6.5246226105706
 11   7.75141666892254  5.50241436280718
 12   8.06730961446312  4.87568898170866
 13   8.39540847836537  4.25674800500059
 14   8.67538107306083  3.61948418538522
 15   8.78741259370435  2.94329872865772
 16   8.55494617346472  2.26135922834807
 17   8.20322617290704  1.91633172263376
 18   8.12456057706509  1.86898096498567
 19   8.04928740626882  1.83114297609498
 20   7.97081162134652  1.79910024626189
 21   7.88870853497925  1.77334827074334
 22   7.80232806290211  1.75456814688323
 23   7.71010438667192  1.74374821645195
 24   7.61031905819232  1.74275153688988
 25   7.50203593549765  1.75452913357694
 26   7.38574274105732  1.78291266142003
 27   7.26361694341694  1.83213308962539
 28   7.13946312480221  1.90625236797334
 29   7.01842775296597  2.00866152774424
 30   6.90659955191236  2.14170912507394
 31   6.81053494868455  2.30644308520746
 32   6.73666209595961  2.50242125724748
 33   6.69046290012729  2.72756335952516
 34   6.67535556533678  2.97806519926536
 35   6.69140472218808  3.24855795470601
 36   6.73463512851473   3.5335857579921
 37   6.79857571980398  3.83238375923968
 38   6.87701524919198  4.15303227006779
 39   6.95856756585893  4.49025349864295
 40   7.02908212180068   4.8278494114021
 41   7.08098979217642  5.16355790111407
 42   7.11009484502983  5.49998960997047
 43   7.11317118094604  5.83994196558934
 44   7.08717081981927  6.18529636185013
 45   7.02910446947987  6.53680267289416
 46   6.93627483261013  6.89393038307674
 47   6.80668394690072  7.25500516688106
 48   6.63935627630001  7.61768360196601
 49   6.43442293949467  7.97952796506278
 50   6.19295923149015  8.33846828959055
 51   5.91667472234961  8.69302483464405
 52   5.60760536012552  9.04226537037484
 53    5.2679350570953   9.3855834844054
 54   4.90000369395123  9.72246628097383
 55   4.50649400536419  10.0524249302732
 56   4.09080020443517   10.375137308064
 57   3.65775970046624  10.6905291347631
 58   3.21491531616539  10.9981547019798
 59   2.77057928525096  11.2970985067551
 60   2.32569684045381  11.5880788457152
 61   1.88119827267927  11.8666279505198
 62   1.43925047150564  12.1214028919646
 63   1.00056199721792  12.3368815046625
 64   0.56837411308872  12.4951757434567
 65  0.185440992209355  12.5762514014939
 66  -0.0158472761944211  12.5915167092067
 67  -0.169241868722269  12.5894504578737
 68  -0.40818841514834  12.5630148183129
 69  -0.830232322740256  12.4543738534036
 70  -1.26963991764606  12.2754319158625
 71  -1.71321712502043  12.0452857142693
 72   -2.1599351446124  11.7815687144819
 73  -2.60871722389655  11.4987614183589
 74  -3.05720892913606  11.2060863039281
 75  -3.50539922646568  10.9052303265494
 76  -3.94948103265808  10.5956064094114
 77  -4.38051522705594  10.2779458866359
 78  -4.79200248913754  9.95228399612614
 79  -5.17969682226439  9.61872631367363
 80  -5.54047022129833  9.27773534544672
 81  -5.87175526162495  8.92993056280781
 82  -6.17125130157059  8.57597480141758
 83  -6.43680048774326  8.21668703883912
 84  -6.66644898879149  7.85327484162915
 85  -6.85868247626327  7.48750209012559
 86  -7.01275070405608  7.12164256008457
 87  -7.12893796367781  6.75817025747971
 88  -7.20864193953934  6.39925318364204
 89  -7.25420144407764   6.0462079866039
 90  -7.26853662249327  5.69913047438445
 91  -7.25480063282927  5.35686651050065
 92   -7.2162883548749  5.01720612719715
 93  -7.15680130479449  4.67734116431284
 94  -7.08199514016502  4.33608176763254
 95   -7.0023466710843  4.00058001820505
 96  -6.93341206034755  3.69094508328718
 97   -6.8823471753343  3.40064520388473
 98  -6.85490387841605   3.1248222423258
 99  -6.85601043754692  2.86669413697223
100  -6.88721834958184  2.63145327224107
101  -6.94650647036431  2.42326808738896
102   -7.0293571763495  2.24469942980313
103  -7.12990401872675  2.09671578281961
104  -7.24182124669448  1.97881248792486
105  -7.35897713305364  1.88916497525999
106  -7.47595272400637   1.8248329800718
107  -7.58849419808291  1.78206494753047
108  -7.69388210328963  1.75673114402558
109  -7.79112877296077  1.74487857632723
110  -7.88086950361194  1.74320211292111
111  -7.96484170183679  1.74951278033069
112  -8.04484385105897  1.76242840184306
113  -8.12144603922032  1.78128552239001
114  -8.19473905324234  1.80517775800187
115  -8.27362300346261  1.83761449632391
116  -8.68357139974426  2.14898719812123
117  -8.96378566561446   2.8143425012101
118   -8.8730237663749  3.49206623605709
119   -8.5997076731673  4.13111317847695
120  -8.27250667835449  4.74974929565794
121  -7.95540356968866  5.37496167274727
122  -7.53167113425801  6.39601053209202
123  -7.14709058118881  7.40491416719943
124  -6.66341708378852  8.41327014695591
125  -5.88354417175227  9.23400593108084
126   -5.0826242226778  10.0267085081773
127  -4.19911557900232  10.7619872775168
128  -3.25449265660863  11.4320932305355
129  -2.27729637418492  12.0576598983202
130  -1.22538110207283  12.5423407381044
131  -0.218020553169698  13.4268238761836
132  0.923102672281448  13.2115470303847
133   1.97908011310903  12.7225271162725
134   2.96494005935818   12.106477871001
135   3.90758527363336  11.4323590106526
136   4.81460421599685  10.7150187988344
137    5.6757943050499  9.95093883994082
138   6.45166264217204  9.10310350277513
139   7.08380921328046   8.1251572292552
140   7.59937472402197  7.08624507810894
141   8.08153964514387  6.04762659308099
142   8.39080028200989  5.37302886360273
143   8.70454107333954  4.70195704125348
144   9.02911950751333  4.03611684900213
145     9.375485284574  3.38454841404252
146   9.75424197380656  2.76598086110244
147    10.589647912918  1.22008214797683
148    10.563428698434 0.596058346412459
149   10.4135998900924 0.119286039193279
150   10.1929874350006 -0.264514893781983
151   9.92744098950132 -0.571256497464762
152   9.63208555339667 -0.811937592017949
153    9.3179704657299 -0.993631339214795
154   8.99443151458338 -1.12154743492386
155   8.66873576635262 -1.20053594276922
156   8.34543779198376  -1.2351658182579
157   8.02649236654435 -1.22906100525882
158   7.71204248918503 -1.18424094682695
159   7.40147780249065 -1.10078954633505
160   7.09448074142114 -0.976884260676096
161   6.79196673876006 -0.809159815613807
162   6.49689597635248 -0.593460591371319
163   6.21486075831313 -0.326135812601772
164   5.95414842901442 -0.00601999787903334
165   5.72473074786362 0.363138185352137
166   5.53581524916344 0.770820386951617
167    5.3927660134942  1.19943459665752
168   5.29501876961056  1.62537195957953
169   5.23485262375893  2.03137027044149
170   5.20171297277268  2.41522004791064
171   5.18704456999718  2.77744410703359
172   5.18424080954484  3.11904987278867
173   5.18825316537982  3.44140162178125
174    5.1952942813253   3.7461634139047
175   5.20258142748706  4.03533206961686
176   5.20809854584104   4.3115316506263
177   5.21033926798266   4.5782256841578
178   5.20801410594547  4.83966289238979
179   5.19974072642288  5.10068941550235
180   5.18373143550064   5.3665121178074
181   5.15748367088271  5.64238354560838
182   5.11749701985821  5.93313460403208
183   5.05908112885944  6.24253100471011
184   4.97634284717233  6.57258802386827
185   4.86234978813811  6.92323078163016
186   4.70900823442068  7.29315103225924
187   4.50479359098323  7.68347819640549
188   4.22905414101267  8.10101742963708
189   3.86680299035552  8.53121277393546
190    3.4492803040163  8.91679559129957
191   2.99911134296964  9.23897535903262
192   2.52368408962389   9.4994839315139
193   2.03397432142673  9.69923707078555
194   1.53781365048125  9.84275931065762
195  0.994225497508559  9.94320419747827
196  0.244000682748669  10.0038859935481
197  -0.648563690983313  9.99668278394254
198  -1.33613734437918  9.92357870936892
199  -1.84828918862866  9.81500108327314
200  -2.34635183903924  9.65561982115696
201   -2.8373318464267   9.4366641466859
202  -3.30948674779854  9.15585410590448
203  -3.75340385886238  8.81223696444621
204  -4.16005467988191   8.4061383602467
205  -4.49711782093127  7.97397413708503
206  -4.74802346864867   7.5652490560719
207  -4.93527317566908  7.18057221392859
208   -5.0759329212251  6.81450348635737
209  -5.17974180682963  6.46750481046598
210  -5.25427243548458  6.14087430013377
211  -5.30614027523237  5.83418051968324
212  -5.34089861487064  5.54492031610853
213  -5.36289557661146  5.26901054617565
214  -5.37533796902625  5.00148215310364
215  -5.38051636052362  4.73708150917416
216  -5.38010355753169  4.47069503595781
217  -5.37547282761996  4.19763890565919
218  -5.36801794660131  3.91387677942368
219  -5.35946679356978  3.61616759350718
220  -5.35217101863877  3.30205092660159
221  -5.34936111148013  2.96962035136422
222   -5.3553917410686   2.6173480342476
223  -5.37599825796901  2.24418450918968
224  -5.41857179803806  1.84970228988673
225  -5.49240833250055  1.43475216694343
226  -5.60774900898725  1.00574683812111
227  -5.76865786230255 0.586317879610566
228  -5.97258592549195 0.197320717052243
229  -6.21231856585709 -0.147768319616466
230  -6.47861640859956 -0.44247529475875
231  -6.76290276100217 -0.685910781641579
232  -7.05881156923084 -0.880505736257486
233  -7.36253027865076 -1.02987178211893
234  -7.67243043303875 -1.13726817503701
235   -7.9883549023884 -1.20463892197949
236  -8.31070484238511 -1.23207238698705
237  -8.63936148645222  -1.2176184782851
238  -8.97252435096991 -1.15749796444941
239  -9.30573798983354 -1.04672136125815
240  -9.63156256854768 -0.879866727771756
241  -9.94012834197264 -0.651269523671694
242  -10.2197196479377 -0.35370102328409
243  -10.4547848901486 0.023956818510222
244  -10.6191170666375 0.497702031993681
245  -10.6609874700925  1.11562886906656
246  -9.91638453902774  2.62629255607641
247  -9.55687346633129  3.24984191539744
248  -9.22459214944908  3.90414024167298
249   -8.9093570687582  4.56948875537018
250  -8.60156535725944  5.23752427016923
251  -8.29738053008329  5.90854714899773
252  -7.82548649721531  6.94605225307648
253   -7.3308766924967  7.99016415080176
254  -6.72666163232289  8.98007301680806
255   -5.9781945162834     9.84123615731
256    -5.144163451203  10.6250248743886
257  -4.25649265171227  11.3492879288137
258  -3.32937751379813  12.0227901855442
259  -2.36165330277861  12.6381973167518
260  -1.33335433670021  13.1456821461778
