// Id               X                Y
  1  -0.175557343884583  1.64363169709689
  2  0.766231876459107  1.63257664918169
  3   1.69478922522667  1.59744221890165
  4   2.61536218062661   1.5445200494744
  5    3.5337206307014  1.49018810699151
  6   4.45148258534499  1.51166444147269
  7   5.35992023079695  1.60865707480899
  8   6.25569350544417   1.7533656531133
  9   7.14511124100013  1.89028345848821
 10   8.03722506993315  1.94298061394471
 11   8.92093787605665  1.80394832421587
 12   9.36077473549188  1.57612707967206
 13   9.72103029740223  1.21034663122664
 14    9.8943520981476 0.666313799711815
 15    9.7071833114985 0.168747561358314
 16   8.96271857979232 -0.0279722920854069
 17   8.39032609272826 0.0740902829020597
 18   8.17650435317772 0.124931437158302
 19   8.03862676583296 0.160438268826006
 20   8.00313051713101 0.169858125712195
 21   7.96162917220324 0.181008261520986
 22   7.89116064474161 0.200254574670939
 23   7.79588718998104 0.226823475081052
 24   7.68177551260679 0.259319676868931
 25   7.55263823398059  0.29675300576193
 26   7.41121569666033 0.338261936486751
 27   7.25957651380811  0.38303913875894
 28   7.09932800785693 0.430314381644353
 29   6.93175117865541 0.479356547220994
 30   6.75789516840031 0.529481632388123
 31   6.57864532371706  0.58006143878277
 32   6.39477193770104 0.630530760052469
 33   6.20696409070104  0.68039223031171
 34   6.01585192662767 0.729218616086437
 35   5.82202019250245 0.776652644813272
 36   5.62601551407874 0.822404648604904
 37   5.42834951422472 0.866248425729959
 38   5.22949946685803 0.908015794354389
 39   5.02990774333194 0.947590330512786
 40   4.82998089436392   0.9849007480134
 41   4.63008885503995  1.01991430497841
 42   4.43056448125641  1.05263052838966
 43   4.23170342468808  1.08307545188989
 44   4.03376422197914  1.11129647560518
 45   3.83696840322528  1.13735788597848
 46   3.64150041112593    1.161337019405
 47   3.44750716963554  1.18332101378204
 48   3.25509725859901  1.20340406446571
 49   3.06433984218344  1.22168508469945
 50   2.87526374457951   1.2382656669478
 51   2.68785730699632  1.25324825389554
 52   2.50206979293214  1.26673445789253
 53    2.3178150175841  1.27882351152448
 54   2.13497749649018  1.28961087780673
 55   1.95342079508903  1.29918707850622
 56   1.77299711351927  1.30763679819235
 57   1.59355672307198  1.31503828743557
 58   1.41495586752569  1.32146303535452
 59   1.23706215236918  1.32697563342904
 60   1.05975708759943  1.33163372945772
 61  0.882936079452935  1.33548797930454
 62  0.706506595905587  1.33858193687754
 63  0.530385390054023   1.3409518645748
 64  0.354495585532519  1.34262648321146
 65  0.178764190749809  1.34362670396254
 66  0.00312030341388708  1.34396539306652
 67  -0.172506030604687  1.34364721501945
 68  -0.348184572303524  1.34266858557575
 69  -0.523985654890304  1.34101774602916
 70  -0.699981359633189  1.33867494853938
 71  -0.876247381179576  1.33561272203581
 72  -1.05286563383144   1.3317961730487
 73  -1.22992735328902  1.32718326973995
 74  -1.40753613635486  1.32172506448069
 75  -1.58581010773491  1.31536583305324
 76   -1.7648822986599  1.30804314542572
 77  -1.94489845476731  1.29968792621886
 78   -2.1260119038427   1.2902245983012
 79  -2.30837575136015  1.27957141438121
 80  -2.49213335158412  1.26764105965179
 81  -2.67740846723362  1.25434155877634
 82  -2.86429657575876  1.23957746320088
 83  -3.05285837853893  1.22325125554872
 84  -3.24311589871812  1.20526490309965
 85  -3.43505089135931  1.18552152093139
 86  -3.62860485838622  1.16392715184264
 87  -3.82367983509727  1.14039271579623
 88  -4.02013923407661  1.11483621335315
 89  -4.21780827460999  1.08718528140036
 90  -4.41647378133683  1.05738019774106
 91  -4.61588334089265  1.02537741796965
 92  -4.81574394056589 0.991153705981627
 93  -5.01572028585373 0.954710887898985
 94  -5.21543301915315 0.916081214865862
 95  -5.41445704958398  0.87533325866919
 96  -5.61232015369067 0.832578182156532
 97   -5.8085019074138 0.787976124660508
 98  -6.00243284221459  0.74174232913499
 99  -6.19349346049246 0.694152530898684
100  -6.38101237928418 0.645547057825081
101  -6.56426239053401 0.596333097502044
102  -6.74245264252451 0.546984708442106
103  -6.91471448467363 0.498040420622713
104   -7.0800777854011 0.450098702106469
105  -7.23743365147749 0.403812182045099
106  -7.38547812773597  0.35988239638403
107  -7.52262870567098 0.319058248564149
108  -7.64689858273445 0.282144243979273
109  -7.75569273207103 0.250031913792591
110  -7.84540083782651 0.223795837143045
111  -7.91036416565014 0.204982517999431
112  -7.94820853122793 0.194111836131858
113  -7.97797409883708 0.185608262610747
114  -8.11365158770017 0.147445933056847
115  -8.32595986358122 0.0903089883894906
116  -8.89686972589566 -0.0403051923029731
117    -9.658023147348 0.077563372731676
118  -9.93066337305575 0.475029799057521
119  -9.91716341394107 0.975479279243529
120  -9.64311352859621  1.42293050422165
121   -9.2240491920902  1.73152053955306
122  -8.34146735087172  1.96223286725509
123  -7.43644730868927  1.96203621757569
124  -6.54163526026783   1.8341222466287
125  -5.65189205046391  1.67245856686909
126  -4.75659728376623  1.54717399370887
127  -3.85598064946059  1.49605946393843
128  -2.95743609039074  1.52475290185947
129  -2.05038865861744  1.58053671444795
130  -1.10831027124829  1.59931590115687
131  -0.0756758859962004  2.22252073179704
132  0.841890528452166  2.21844455429872
133   1.75776484253702  2.18454300181819
134   2.67220650548057  2.13639167856754
135   3.58614181527399   2.1048618657651
136   4.50088222265734  2.12950881026048
137   5.41690475770856  2.22572645284873
138   6.33933741038673  2.36747815194998
139   7.29343628981842  2.49046968639709
140   8.34645488905009  2.47235892178592
141   9.35153609009719  2.12396301601324
142   9.86466089671081  1.69178807096499
143   10.2195332084341  1.14242537772583
144   10.3972982048833 0.641265473998581
145      10.4972037236  0.14031800196343
146   10.5835545372408 -0.515031448892779
147   10.4818948886921 -1.52928471451524
148   10.2951712325304 -1.85653956805015
149    10.053647677815  -2.1276500196353
150   9.73175816071883 -2.36906671956249
151   9.37836864040989 -2.54337693345593
152   9.02685330266138 -2.65333018260413
153   8.68961043869939 -2.71407912780526
154   8.37016272144854 -2.73921996960352
155   8.06921363632048 -2.73903593022684
156   7.78592804498555 -2.72114642716755
157   7.51876960530812 -2.69111701901276
158   7.26596688492279  -2.6529835378274
159   7.02574863182537 -2.60966293075528
160   6.79645028287833  -2.5632596238614
161   6.57655312548751 -2.51528876050948
162   6.36469063458552 -2.46683767099083
163   6.15964054554404 -2.41868284724521
164   5.96031214594017 -2.37137516841179
165   5.76573323540044  -2.3253023644262
166   5.57503849855235 -2.28073493574283
167   5.38745966966677  -2.2378598381962
168   5.20231726175131 -2.19680497701806
169    5.0190134440333 -2.15765672983783
170   4.83702567356362 -2.12047217666833
171   4.65590079830997 -2.08528734526033
172   4.47524948434551 -2.05212251268936
173   4.29474094542699 -2.02098539711041
174   4.11409805378348 -1.99187290408648
175   3.93309297689542 -1.96477194735034
176   3.75154350606385 -1.93965973805184
177   3.56931020445171 -1.91650382705724
178     3.386294390034 -1.89526209217931
179   3.20243677709749 -1.87588278916413
180   3.01771634958983 -1.85830473586169
181   2.83214879457025 -1.84245767581344
182   2.64578369196278 -1.82826286770979
183   2.45869975750539 -1.81563395949579
184   2.27099783348699 -1.80447821148581
185   2.08279195310134 -1.79469811278534
186   1.89419946139355 -1.78619338229798
187   1.70533158893449   -1.778863271679
188   1.51628585823024 -1.77260902017526
189   1.32714126587694 -1.76733627787509
190   1.13795651535731 -1.76295732637493
191     0.948770930114 -1.75939297563115
192    0.7596072448713 -1.75657408135223
193   0.57047532415308 -1.75444268698132
194  0.381375955830281  -1.7529528348629
195  0.192304127920783 -1.75207110947479
196  0.003251525182656 -1.75177697550351
197  -0.18579170070257 -1.75206296146272
198  -0.374835586801106 -1.75293472123677
199  -0.56388900399413 -1.75441098506495
200  -0.752957850928307 -1.75652338990257
201  -0.942042484754666 -1.75931615787346
202  -1.13113431801568 -1.76284557240034
203  -1.32021182748464 -1.76717918813244
204  -1.50923655565707   -1.772394708728
205  -1.69814996222722  -1.7785784826323
206  -1.88687210696244 -1.78582360584429
207  -2.07530302409733 -1.79422768023608
208  -2.26332723436608 -1.80389034385462
209  -2.45082118890203 -1.81491074393134
210  -2.63766273424029 -1.82738514107606
211  -2.82374119449983 -1.84140480341483
212  -3.00896660115407 -1.85705428260593
213  -3.19327699662721 -1.87441008774106
214  -3.37664341799329 -1.89353971781969
215  -3.55907284751572 -1.91450099334302
216  -3.74060986592009 -1.93734163642892
217  -3.92133788014227 -1.96209906719692
218   -4.1013806786826 -1.98880039157576
219  -4.28090481914653 -2.01746253914327
220  -4.46012308946104 -2.04809246485753
221  -4.63929907566514 -2.08068725668979
222   -4.8187527370624 -2.11523389439304
223  -4.99886682625007 -2.15170828325702
224  -5.18009397841594 -2.19007303796663
225  -5.36296431365704 -2.23027330961866
226   -5.5480934357108 -2.27222972426197
227  -5.73619076237044 -2.31582722062819
228  -5.92806817782846 -2.36089821845697
229  -6.12464903537635 -2.40719808702446
230  -6.32697751326959 -2.45437026840157
231   -6.5362281350049 -2.50189756510402
232  -6.75371470462632 -2.54903490982373
233   -6.9808966017439 -2.59471723450636
234  -7.21937766946815 -2.63743367352649
235  -7.47088769779126  -2.6750562088046
236  -7.73722694431563 -2.70460737530122
237  -8.02013748883727 -2.72194939156372
238   -8.3210380580834 -2.72138044951254
239  -8.64052066898084 -2.69514233370016
240  -8.97748569576951 -2.63288642341053
241  -9.32781808796247 -2.52118685896053
242  -9.67775311216013 -2.34602669630593
243  -9.99665394112496 -2.10418347029237
244  -10.2349903492314 -1.83451333821797
245  -10.4201949442173 -1.50848634310337
246  -10.5235792889132 -0.498043048355073
247  -10.4422572244551 0.166122468249188
248   -10.315625969763 0.837918344222948
249  -10.0558530038001  1.47042115006148
250  -9.65666204170044  1.96992709336505
251  -9.21017610349853  2.29063305182369
252  -8.32243012677051  2.56946800022849
253  -7.39488858631899  2.57934239342464
254  -6.47986638080976  2.44981011513979
255   -5.5751829989376  2.28663167469169
256  -4.66798966854494  2.16037057976637
257  -3.75325523905074  2.10593230160765
258  -2.83187463157281  2.11764042803878
259  -1.91055545035173  2.15729138466162
260  -0.991551678198285  2.19688048646373
