// Id               X                Y
  1  -0.0079668627952426 -0.227700497232543
  2  0.873957999081265 -0.175100263942935
  3   1.71026211362687 0.00367613155886429
  4   2.64025690348472 0.513536114847476
  5    3.4430914068032 0.849056916036832
  6     4.204255977847  1.29715351282065
  7   4.95962698715363  1.74410496537684
  8   5.74574251027809  2.11825444639419
  9   6.57957660476067   2.3524580725965
 10    7.4423550778951  2.36738985723153
 11   8.27829539954283  2.11991912291373
 12   8.66124211127753  1.83229275052312
 13   8.93669574177578  1.39416597343985
 14   8.90137792590112 0.846444648562933
 15   8.43450522490504  0.53905545071054
 16   7.63485663194256  1.00250235236806
 17   6.89441328865055  1.56083914073358
 18   6.45358948479387  1.51868709167492
 19   6.26127556927236  1.43290377837565
 20   6.08045633030521  1.31619750306343
 21   5.91060067397692  1.18240954120616
 22   5.79302799760058  1.08394083307181
 23    5.6729692745819 0.983031453608488
 24   5.55996224633521 0.891282419103529
 25   5.44157217071524 0.800900711117237
 26   5.31878349097476 0.714940498054613
 27    5.1916338520767 0.635005836619284
 28   5.05997490020941 0.561940713848031
 29   4.92425783939962 0.496335861701647
 30   4.78602553551268 0.438660042005738
 31   4.64579071814633 0.388442367232008
 32   4.50476610951289 0.345272595373205
 33   4.36318774312209 0.308395543623416
 34   4.22151714087571 0.277259421891222
 35   4.07990727812105  0.25139448233392
 36   3.93848634651639 0.230468199461166
 37   3.79735178312936 0.214221760919425
 38   3.65657352861152 0.202409620014796
 39   3.51626413103257 0.194759833939243
 40   3.37636122155497 0.190945158674618
 41   3.23680472945982 0.190607360085094
 42   3.09759482802836 0.193370404676302
 43   2.95877143460917 0.198854406222615
 44   2.82039327444906 0.206690251365274
 45   2.68253040040724 0.216529462635878
 46    2.5452579186413 0.228048079318288
 47   2.40865252250412 0.240945810038065
 48   2.27278829763609  0.25494300758577
 49   2.13773446737136 0.269777287857771
 50   2.00355396104094 0.285201008504967
 51   1.87030306555981  0.30097981660308
 52   1.73803201921081 0.316891918845597
 53   1.60678576866191 0.332727621146947
 54   1.47660685057297 0.348288473425639
 55   1.34753757300221 0.363386211354946
 56   1.21963036169871 0.377840645053794
 57   1.09295297859933 0.391478598408032
 58  0.967608035956902  0.40413251623552
 59  0.843696987421527 0.415646512133389
 60  0.721262013149059 0.425884366713393
 61  0.600108641526245  0.43474347505964
 62  0.479817472010233 0.442145539752429
 63  0.359878745517322 0.448019563639128
 64  0.239977685780414 0.452288222408988
 65  0.120003908791119 0.454881308329824
 66  -2.15604996470496e-05 0.455751043904934
 67  -0.120042888652706 0.454880992331539
 68  -0.240004511501398 0.452287889491723
 69  -0.35988715621568  0.44801974559006
 70  -0.479806278104237 0.442146736289878
 71  -0.600084212538322 0.434745737581548
 72  -0.721235195639007  0.42588719763913
 73  -0.84367575077584 0.415649346127383
 74  -0.967594396667198 0.404135144847907
 75  -1.09294517559239 0.391481133734613
 76  -1.21962603731381 0.377843254076948
 77  -1.34753508450438 0.363388966290782
 78  -1.47660534875701 0.348291335943137
 79  -1.60678489042584 0.332730490087578
 80  -1.73803165165284 0.316894681608847
 81   -1.8703032093234 0.300982389157274
 82  -2.00355467737361  0.28520335732627
 83  -2.13773585691258 0.269779434033165
 84  -2.27279050463976 0.254945009239635
 85  -2.40865573643271 0.240947722418687
 86  -2.54526238534101 0.228049887668772
 87  -2.68253638379348 0.216530990678016
 88  -2.82040103289799 0.206691039411294
 89  -2.95878107323194 0.198853578763819
 90  -3.09760638750928 0.193366535453551
 91  -3.23681812704837 0.190598426746303
 92  -3.37637715214384 0.190928683142327
 93  -3.51628387140555 0.194733395196599
 94  -3.65659989913635 0.202371836858941
 95  -3.79738431505792 0.214173252410615
 96  -3.93851991108928 0.230412333942613
 97  -4.07993135966726  0.25133720976074
 98  -4.22152851627603 0.277209825064652
 99  -4.36320789992465 0.308367802388044
100  -4.50477726011403 0.345268337905512
101   -4.6458447945142 0.388478135041352
102  -4.78600647586117 0.438691569176228
103  -4.92427051630761 0.496395553212128
104  -5.05989055770317 0.561960191197808
105  -5.19156462517962 0.635031062285832
106  -5.31873830148736 0.714971282085295
107  -5.44157574787203  0.80094810641005
108  -5.55999971403928 0.891329948891652
109   -5.6729603913799 0.983008205695585
110  -5.79297052545859  1.08383859164046
111   -5.9107960131669  1.18248780984799
112  -6.08039171145577  1.31602342803749
113  -6.26118401383387  1.43271403285243
114  -6.45346950611959  1.51850677155917
115  -6.89428936327548  1.56073349459124
116  -7.63475679676997  1.00244543841193
117  -8.43442215308749 0.539024589612569
118  -8.90128138576896 0.846421933093451
119  -8.93658986082124  1.39412477334584
120  -8.66114309666383  1.83223901292305
121  -8.27820138565771  2.11986574305562
122   -7.4422715905773   2.3673599591653
123  -6.57949474927257  2.35249178369817
124  -5.74564620144008  2.11837556020152
125  -4.95952260171527  1.74444019241397
126  -4.20453070579902  1.29894674710538
127  -3.45218281292052 0.855974423082495
128  -2.69451329133033 0.516291818148608
129  -1.87469308864037 -0.00973690924127334
130  -0.923939815140131 -0.17566030102873
131  -0.00238239614902665 0.383414771026224
132   0.87036579043145 0.438868051229098
133   1.71852913650146 0.628827710966913
134   2.53870086850774  1.05383649291152
135   3.32465920525749  1.45335100565263
136   4.10243650193866  1.90816262882252
137   4.90173353924889  2.35911286504462
138   5.76517392621612  2.73265261832773
139   6.77392741215667  2.93711578854758
140   7.83810206819803  2.80308581392922
141   8.74838535905416  2.22314461482893
142   9.12532630499848  1.64347048077077
143   9.26045793737881  1.02759843999244
144   9.24908063157706 0.533443982724902
145   9.22680807297641 0.107964098187656
146   9.37377167379073 -0.569238479044465
147    9.7344395718573 -1.78164856036864
148   9.73443640728335 -1.78165403211429
149   9.56972860364121  -1.9817216829798
150    9.2538738615291 -2.21367825363331
151   9.15413038396316 -2.28149472283583
152   8.98070274868258  -2.3985019156781
153   8.83982400655171 -2.49635122217905
154   8.69053377521941 -2.60299350880676
155   8.54086340886388 -2.71102564485558
156   8.38689785855879 -2.82022756289801
157   8.22656559965381 -2.92862599331785
158    8.0602329115999 -3.03297942458997
159   7.88861048716041 -3.13103342519743
160   7.71170438068041 -3.22219231203406
161   7.53052149743166 -3.30626764890753
162   7.34524359338827  -3.3840326754946
163   7.15695641512216 -3.45605642583778
164   6.96594891485242 -3.52317715484155
165   6.77230570230123 -3.58606867626195
166   6.57555592300285 -3.64530794695881
167   6.37528163575546 -3.70120789016783
168   6.17130099681286 -3.75385974060075
169   5.96373274507546 -3.80321658704791
170   5.75308296280372 -3.84915710083575
171   5.53994870575577   -3.891605611485
172   5.32481778307771 -3.93057803559716
173   5.10807303580041 -3.96616104724931
174   4.89001931149448 -3.99848644467204
175    4.6709071641155 -4.02771275490713
176   4.45094712537301 -4.05401523869338
177   4.23031867277699 -4.07758074268202
178   4.00917589932894 -4.09860412530055
179   3.78765088080019 -4.11728449897327
180   3.56585554676983  -4.1338210701393
181   3.34388254055826 -4.14840923080291
182   3.12180519721136 -4.16123757473066
183   2.89967712393835 -4.17248597941759
184   2.67753070072829 -4.18232440471859
185   2.45537652581104 -4.19091160912225
186   2.23320087805589 -4.19839327810242
187   2.01096818096493  -4.2048989852066
188   1.78861626602925 -4.21053870324676
189   1.56606712701832 -4.21539911238327
190   1.34322767243301 -4.21954219645315
191   1.12004270937346 -4.22300656144631
192  0.896505797851516 -4.22581414591913
193  0.672670292699038 -4.22797861524188
194  0.448593462099899 -4.22951208788257
195   0.22434328708354  -4.2304261568966
196  -2.60090887993144e-07 -4.23072965320523
197  -0.22434413132035 -4.23042583292694
198  -0.448595310548013 -4.22951124906289
199  -0.672673744389947 -4.22797697689634
200  -0.896510929972299 -4.22581148591092
201   -1.1200486232624 -4.22300285944761
202  -1.34323308908749 -4.21953766178417
203  -1.56607159726189 -4.21539407769275
204  -1.78862013780012 -4.21053348708872
205  -2.01097190716616 -4.20489381268199
206  -2.23320463602924 -4.19838827098161
207  -2.45538032191633 -4.19090681136125
208   -2.6775344950658 -4.18231981810281
209  -2.89968089127726 -4.17248159286397
210  -3.12180892878097 -4.16123338683308
211  -3.34388624018164 -4.14840527395106
212  -3.56585922457104 -4.13381744714068
213  -3.78765455286463 -4.11728143219847
214  -4.00917958564518 -4.09860199952003
215   -4.2303223962344 -4.07758010033642
216  -4.45095090607011 -4.05401667633359
217  -4.67091102363811 -4.02771668231357
218  -4.89002330587512 -3.99849271580309
219   -5.1080774316812 -3.96616853197801
220  -5.32482364135783 -3.93058424161598
221  -5.53995956878542 -3.89160638605275
222  -5.75310864230315 -3.84914624119584
223  -5.96379604636836 -3.80318491744151
224   -6.1714447263538 -3.75379369828346
225  -6.37556456171855 -3.70109002835491
226  -6.57601739041971 -3.64512584836435
227  -6.77289093365361 -3.58583824131455
228  -6.96647832987006 -3.52295852720703
229  -7.15719207399001 -3.45594066253696
230  -7.34514355053714 -3.38405069865954
231   -7.5301635474672 -3.30640275228635
232  -7.71143572420111 -3.22229089482993
233   -7.8884683685898 -3.13106175332367
234  -8.06032341218556 -3.03286127173179
235  -8.22666790868204 -2.92848992450074
236  -8.38686199753857 -2.82019286188464
237  -8.54073828210946 -2.71107959233453
238  -8.69045797963684 -2.60304534422793
239  -8.83993508787097  -2.4963073542052
240  -8.98086759037288 -2.39845785563102
241  -9.15340492219443 -2.28208002889314
242  -9.25383318063866 -2.21382084796858
243  -9.56933359639877 -1.98212305907262
244  -9.73435928747722 -1.78176169278614
245  -9.73436243581575  -1.7817562488035
246  -9.37372830514271 -0.569284824841352
247   -9.2267493932851 0.107968380875013
248  -9.24901321865564 0.533446681013441
249  -9.26037142886013  1.02758570730371
250  -9.12523091823617  1.64341713887978
251  -8.74829568757448  2.22308329342366
252  -7.83804044851135  2.80304172265121
253  -6.77389847541848  2.93712572204018
254  -5.76529063259882  2.73275205638109
255  -4.90177499429285   2.3595123274217
256  -4.10190054084747  1.90975175223039
257  -3.32465688233754  1.45524065635098
258  -2.54423158762495  1.04514950349725
259  -1.74305555578009 0.602871528705909
260  -0.878805808490401 0.426097679942358
