// Id               X                Y
  1  -0.0769938725795682 0.353366142727803
  2  0.844200882442054  0.35846055337328
  3   1.76818919053607 0.373621292067798
  4   2.70206892945939 0.407073258099469
  5   3.61950488924781 0.575916304652271
  6   4.49357944709975   0.8856100921521
  7   5.30962215796038   1.3065746965206
  8   6.08249028284704  1.78091169789541
  9   6.85903903823291  2.23538271901819
 10   7.69704422726909  2.52911521889274
 11   8.58436214730165  2.49612520838521
 12   9.00998417967666   2.2587136651661
 13   9.31679365692656  1.85691671231222
 14   9.38587402947318   1.3295756778033
 15   9.13678201970945 0.877833192859994
 16   8.45036486369555 0.674223532751057
 17   8.27948131635655 0.647706255901646
 18   8.03164491345543 0.612768864542653
 19   7.79136058548207 0.577809312354228
 20   7.56761517283416 0.543319373243364
 21   7.36090495621245 0.509806335326393
 22   7.17339324320572 0.478404190728378
 23   7.00475389286322  0.44985406503459
 24   6.84742314341813 0.423441904446388
 25   6.69101017056854 0.397823225338785
 26   6.53001738379114 0.372482757977822
 27   6.36349669647604 0.347654273823577
 28   6.19227778416883 0.323781345331064
 29   6.01760034233344 0.301251343567051
 30    5.8406535000848 0.280319063072898
 31   5.66244579315835 0.261106795907148
 32   5.48378560814788 0.243630212698098
 33   5.30529855357425 0.227829250351592
 34   5.12745602469461 0.213595723097662
 35   4.95060499182575 0.200794995513508
 36   4.77499481566569 0.189281611069873
 37   4.60079944334925 0.178909805622705
 38   4.42813469437605 0.169540106548144
 39   4.25707103662756 0.161043131446554
 40   4.08764256376833 0.153301485641146
 41   3.91985302427506 0.146210430546911
 42   3.75367973134256  0.13967779737658
 43    3.5890760683977 0.133623466798613
 44   3.42597324620604 0.127978626503142
 45   3.26428192567434 0.122684943273369
 46     3.103894194255 0.117693732326539
 47   2.94468623939316 0.112965170372983
 48   2.78652194349095  0.10846757519217
 49   2.62925743248961 0.104176755922057
 50   2.47274635216715 0.100075422632309
 51    2.3168454833493 0.0961526339090853
 52     2.161420270915 0.0924032565133132
 53   2.00634981736206 0.0888274086711181
 54   1.85153088785918 0.085429859540752
 55   1.69688058813768 0.0822193647852412
 56   1.54233753659822 0.0792079297147639
 57    1.3878614222911 0.0764100035494493
 58   1.23343090502115 0.0738416220051986
 59   1.07904000106231 0.0715195306596216
 60  0.924693299680829 0.0694603327859985
 61  0.770400473500592 0.0676797086807989
 62  0.616170707374954 0.0661917498786448
 63  0.462007879349683 0.0650084399319086
 64  0.307907337482833 0.064139292337636
 65  0.153854861879533 0.0635911316515857
 66  -0.000171968778717695 0.0633679846270852
 67  -0.154200279906407 0.0634710398583643
 68  -0.308257155094455 0.063898640996381
 69  -0.462364920413674 0.0646463000170009
 70  -0.616537670585559 0.0657067440020122
 71  -0.770779875651075 0.0670700296166515
 72  -0.925087420265283 0.068723767122198
 73  -1.07945086427109 0.0706534878893475
 74   -1.2338602484917 0.0728431690228747
 75  -1.38831061969361 0.0752759050087036
 76  -1.54280751621412 0.0779346967552271
 77  -1.69737174670505 0.0808033153920948
 78  -1.85204294344134 0.0838671939739174
 79  -2.00688161091062 0.0871143059576558
 80  -2.16196957352941 0.0905360009061524
 81  -2.31740880782013 0.0941277809734632
 82  -2.47331875433612 0.0978900159711327
 83  -2.62983236264897 0.101828608849485
 84  -2.78709121691124 0.105955633192526
 85  -2.94524012058848 0.110289968606274
 86  -3.10442157331659 0.114857960829541
 87   -3.2647706057993 0.119694130864585
 88    -3.426410330879  0.12484194875741
 89  -3.58944835507597 0.130354673207019
 90  -3.75397401763146  0.13629624109355
 91  -3.92005628799096  0.14274217018123
 92  -4.08774196147711 0.149780407347626
 93  -4.25705361040155 0.157512010249671
 94  -4.42798670321742 0.166051491881516
 95  -4.60050528408327 0.175526575853155
 96  -4.77453544474856 0.186076989319441
 97  -4.94995568366691 0.197851757213797
 98  -5.12658333783102 0.211004268047029
 99  -5.30415643703378 0.225684171410978
100  -5.48231058174755 0.242024992605009
101  -5.66055144141746 0.260126387686468
102  -5.83822555976674 0.280030515230727
103   -6.0144958093567 0.301693543381563
104  -6.18833710225059 0.324956894463094
105  -6.35859486606755 0.349530845468139
106   -6.5242297058896 0.375021753107105
107  -6.68510763020252 0.401079692047171
108  -6.84409995494819 0.427814121582937
109  -7.00989496049104 0.456363498251784
110  -7.19369455814921 0.488321898982932
111    -7.400693685012 0.524135682027564
112  -7.63093013815963 0.563364686615763
113  -7.88480762799091 0.606083215229212
114  -8.16138433299312 0.653404088474582
115  -8.44173407896572 0.706716446871303
116  -8.44173425929343 0.706716486851547
117  -9.12433887515452 0.912675117343684
118  -9.38642381363496  1.35168945351225
119  -9.34684568113803  1.87488891300978
120  -9.06570180779957  2.29137983136665
121   -8.6542300238108  2.54889524028426
122  -7.76994856364357   2.6091288867097
123  -6.93195265985267  2.32305117993183
124  -6.16246398018414  1.86341995336024
125  -5.40238196844988  1.37871145812333
126  -4.60272376334733 0.943476539803577
127  -3.74629068403331 0.616194123745855
128  -2.84567016423128 0.428483868847214
129  -1.92338719542461 0.375261286824451
130  -1.00083242115012 0.327100334879797
131  -0.0371520522108468 0.934678784230832
132   0.86256469993378 0.942772822727136
133   1.76144233753992 0.959209837771564
134   2.65729387340422  1.02206009061784
135   3.53912151622809  1.19137135594051
136   4.38845005567035  1.49736505475472
137   5.19964198737122  1.91794642652908
138   6.00575016386597  2.39463343737389
139   6.92968257763529  2.85204936842191
140    7.9865821214124  3.07021229467523
141   9.03021103483505  2.77688788304261
142     9.521004796688  2.29157981909419
143   9.78572742982256  1.66727752782541
144   9.84785781804226  1.04647317789704
145   9.81474246259655 0.510593043912265
146    9.7290835228612 -0.189391445792133
147   9.22043666728248 -1.81434633754661
148   9.04897954566925 -1.97712960157295
149   8.90944904567714   -2.084724801448
150   8.76173950361856 -2.18058124339174
151   8.60080679305165 -2.26845444885187
152   8.42243845599069 -2.34975505755048
153   8.22493566104781  -2.4239932165237
154   8.01501170750875 -2.48843758543146
155   7.80357954681182 -2.54141865505559
156   7.59707047401562 -2.58401064447459
157   7.39702336379806 -2.61841145983177
158   7.20279094398594 -2.64666920218546
159   7.01307920929626 -2.67037785049628
160   6.82655525638759 -2.69071920831835
161    6.6420614814911 -2.70856488697607
162   6.45867286115595 -2.72456486140904
163   6.27569025795846 -2.73921175529279
164   6.09260892791905 -2.75288460900087
165   5.90908022327747 -2.76587789652988
166   5.72487503636899 -2.77842064673776
167   5.53985272389274 -2.79068920342307
168   5.35393659966293 -2.80281603141198
169   5.16709572156141 -2.81489613339098
170   4.97933208329868 -2.82699205758562
171   4.79067207137356 -2.83913809486739
172   4.60116106494501 -2.85134402109583
173   4.41086021373482 -2.86359858916386
174   4.21984452955476 -2.87587288760538
175   4.02820150644196 -2.88812362949039
176   3.83602965167083 -2.90029639276207
177    3.6434364858039 -2.91232879730536
178   3.45053570668898 -2.92415357493898
179   3.25744342488037 -2.93570145990052
180   3.06427366007309  -2.9469038035398
181   2.87113346490702  -2.9576948127209
182   2.67811808431687 -2.96801332901376
183   2.48530659441611 -2.97780409470407
184   2.29275848354535 -2.98701848865572
185   2.10051152792188 -2.99561475999258
186   1.90858115309949 -3.00355782868189
187   1.71696140763188 -3.01081874825945
188   1.52562761217397 -3.01737394151268
189   1.33454054312723  -3.0232043293058
190    1.1436517857939  -3.0282944687677
191  0.952909758853417 -3.03263179816964
192   0.76226573010515 -3.03620605984342
193  0.571678910564228 -3.03900893946879
194   0.38111970404208  -3.0410339170899
195  0.190570474285977 -3.04227628243613
196  2.36038828044609e-05 -3.04273323812754
197  -0.190522835012135 -3.04240400549532
198  -0.381070805951398 -3.04128986469448
199  -0.571627999933983 -3.03939410339953
200  -0.762212138636744 -3.03672190023727
201  -0.952852945305883 -3.03328020991744
202  -1.14359137604064 -3.02907773589234
203  -1.33447632839013 -3.02412506828099
204  -1.52555956151935 -3.01843503283857
205  -1.71688973113103 -3.01202325531951
206  -1.90850636863436 -3.00490890592778
207  -2.10043453222129 -2.99711555239248
208   -2.2926806895112 -2.98867202215294
209  -2.48523012318832 -2.97961316018657
210  -2.67804594734113 -2.96998036562615
211  -2.87106973513409 -2.95982179378753
212  -3.06422364437757 -2.94919212624051
213   -3.2574137645521 -2.93815184211567
214  -3.45053431979903 -2.92676596048997
215  -3.64347234438047 -2.91510226104559
216  -3.83611240121676 -2.90322902856302
217  -4.02834088675556 -2.89121239871586
218  -4.22004958865052 -2.87911339498741
219   -4.4111384007241 -2.86698473859332
220  -4.60151729672563 -2.85486749624663
221  -4.79110781854893 -2.84278760813536
222  -4.97984455916301 -2.83075230612865
223   -5.1676773485877 -2.81874639475308
224  -5.35457493376523 -2.80672833025695
225  -5.54053100308156 -2.79462597701706
226   -5.7255736289674 -2.78233181367801
227  -5.90977938760261 -2.76969718368764
228  -6.09329328930967  -2.7565249055001
229  -6.27635533698594 -2.74255910441063
230  -6.45933391763173 -2.72747042459649
231  -6.64276438819396  -2.7108338051423
232  -6.82738751276965 -2.69209477572199
233  -7.01417614743204 -2.67051895633536
234  -7.20432524218754 -2.64511936578208
235  -7.39914785620818 -2.61456201845134
236  -7.59973538480792 -2.57707974439604
237  -7.80601910462392 -2.53053919692766
238  -8.01456385045367 -2.47313490455652
239  -8.21603642241921 -2.40523761067942
240  -8.39933859648203 -2.33014769303992
241  -8.56056924025205 -2.25107479410079
242   -8.7012664495013 -2.16981623373334
243   -8.8220167506746 -2.08892571253835
244  -8.92950870253266  -2.0063214685793
245  -9.08294372873029 -1.86658585066187
246  -9.66773840993049  -0.1925762691919
247  -9.78260459078895 0.507534291323814
248  -9.84166307318527  1.04481827038362
249  -9.81043872034956  1.67376792021953
250  -9.57565523604551  2.31013446272047
251  -9.10514895940277  2.81636854867075
252  -8.07023283974749  3.14291801761763
253  -7.00741525987763  2.93908459199292
254  -6.07426289537533  2.47505442944456
255  -5.26988020189431  1.98549355030781
256  -4.46387487393382  1.54849970406219
257  -3.61830716301078  1.22349962887882
258  -2.73621026114514  1.03422246008577
259  -1.83664569627091 0.953282576225643
260  -0.935507439841783 0.928937591742555
