// Id               X                Y
  1  -0.00317339482066261 -0.72317422490156
  2  0.989834323008823 -0.636110824236001
  3   1.93076712951324 -0.391120144952024
  4   2.80698912723852 -0.0244955906471512
  5   3.62260091440244 0.424052798529415
  6   4.39282357489904 0.917019451841836
  7   5.14005646909502  1.41952560708756
  8   5.89226517925455  1.89317787778546
  9   6.68483254971179  2.28136011557284
 10   7.54533615954081  2.44992318079121
 11   8.38645924281929  2.20450821499929
 12   8.70079567112013  1.85027525674541
 13   8.83619254802966  1.39537366845876
 14    8.7617192898212 0.927192968279472
 15   8.50330096466852 0.532364115988088
 16   7.92785587163516 0.180279392216101
 17   7.92122921111671 0.176583889781547
 18   7.85083506445089 0.137810316585153
 19   7.69437593296927 0.054137761052017
 20   7.52575200809283 -0.0336188153748316
 21   7.35779478806814 -0.119491293728896
 22   7.19077053351809 -0.203885267792627
 23   7.02614636237252 -0.286319639654094
 24   6.86401307048988 -0.366803148095416
 25   6.70449030452607 -0.445168086006696
 26   6.54795942919302 -0.521000001401811
 27   6.39454528961571 -0.593937784151584
 28   6.24350027712419 -0.663992857254332
 29   6.09378442723501 -0.731267301564194
 30   5.94495696765554 -0.795559480268439
 31   5.79665028815335 -0.856637681663404
 32   5.64835939422158 -0.914340665484358
 33   5.49956269741339 -0.968527523534035
 34   5.34981543874152 -1.01904867300456
 35   5.19873725094842 -1.06576156657394
 36   5.04603261893312 -1.10853517682539
 37   4.89148829328736 -1.14726305860251
 38   4.73497915383852 -1.18187351101374
 39   4.57646065301797 -1.21234190416201
 40   4.41595804119679 -1.23870030200005
 41   4.25355563636093 -1.26104287988121
 42   4.08938833751946 -1.27952671736886
 43   3.92362863430247 -1.29436893395823
 44   3.75647177525672  -1.3058396993978
 45   3.58812151437487 -1.31425161771916
 46   3.41877914427494  -1.3199466580789
 47   3.24863571506751 -1.32328223608414
 48   3.07786720469393 -1.32461783881482
 49   2.90663210136467 -1.32430325383571
 50   2.73507065892968 -1.32266906125248
 51   2.56330512456027 -1.32001966407337
 52   2.39144046985528 -1.31662882719329
 53   2.21956533982886 -1.31273748503603
 54   2.04775312816326 -1.30855345426555
 55    1.8760631718693 -1.30425263362062
 56   1.70454201958199 -1.29998126879309
 57   1.53322448599702 -1.29585888925912
 58   1.36213384262512 -1.29198157699191
 59    1.1912804409666 -1.28842530369926
 60    1.0206590905762 -1.28524916948215
 61  0.850247591603582  -1.2824984531564
 62  0.680009656961612 -1.28020737994068
 63  0.509902531054749 -1.27840144294118
 64  0.339885238116777 -1.27709912122672
 65  0.169923007049652 -1.27631298540272
 66  -1.28843303301328e-05 -1.27605033147916
 67  -0.16994780329604 -1.27631350352983
 68  -0.339907178714988 -1.27709999735611
 69  -0.509919984151623 -1.27840237148817
 70  -0.680021560594849 -1.28020794061924
 71  -0.850253775055898 -1.28249815633697
 72  -1.02066033085967 -1.28524750750664
 73  -1.19127813549515 -1.28842179611162
 74  -1.36212952606977 -1.29197580444418
 75  -1.53321952649058 -1.29585052021898
 76  -1.70453759252275 -1.29997008420368
 77  -1.87606038077671 -1.30423854960388
 78  -2.04775312748093 -1.30853653971284
 79  -2.21956940397828 -1.31271797104795
 80  -2.39145001348873 -1.31660710627526
 81  -2.56332169041799  -1.3199962774574
 82  -2.73509588002607 -1.32264467306226
 83  -2.90666763526978 -1.32427861176523
 84  -3.07791463373032 -1.32459372289289
 85  -3.24869640901408 -1.32325939995378
 86  -3.41885408403439 -1.31992577063085
 87  -3.58821108212762 -1.31423321628842
 88  -3.75657551451955 -1.30582416849246
 89  -3.92374500203623 -1.29435652382579
 90  -4.08951447428006 -1.27951761375186
 91  -4.25368726556821  -1.2610373196537
 92  -4.41608965585333 -1.23869869772356
 93  -4.57658610582013 -1.21234490789734
 94  -4.73509226427682 -1.18188201451631
 95   -4.8915831972136 -1.14727817032541
 96  -5.04610384232244 -1.10855821061794
 97  -5.19878045009985 -1.06579380652725
 98  -5.34982715849378 -1.01909133049219
 99  -5.49954199387604 -0.968581060492713
100  -5.64830575463737  -0.9144052951627
101  -5.79656687181641 -0.856712009489725
102  -5.94483543448564 -0.795646585693906
103  -6.09359788714099 -0.731378779544141
104  -6.24323570264659 -0.664135194253371
105  -6.39431253696361 -0.594060314912512
106  -6.54783051671639 -0.521067543936564
107  -6.70441423569161 -0.445205350551149
108  -6.86396575839292 -0.366823642165405
109  -7.02611592639991 -0.28633135501441
110  -7.19074865064234 -0.203894186560661
111  -7.35777294119599 -0.119502895975401
112  -7.52572809394657 -0.0336345819613694
113  -7.69434831558618 0.0541172710771226
114  -7.85079411720174 0.137780810914979
115  -7.92118353188055 0.176551117076214
116  -7.92781039639199 0.180246769224267
117   -8.5032493559166 0.532331028452338
118  -8.76165931775673 0.927160142067667
119  -8.83612455620966  1.39533806104737
120  -8.70072595225601  1.85023589527181
121  -8.38639624237659  2.20446985168659
122  -7.54528761018485  2.44991743380428
123  -6.68477627354221  2.28140965195725
124  -5.89217523165761  1.89329840186326
125  -5.13990758763802  1.41973351335875
126  -4.39259013824355 0.917326118115378
127  -3.62225570704162 0.424467502187427
128  -2.80649679082196 -0.0239901500693943
129    -1.930004413815 -0.390604302752073
130  -0.987994070567349 -0.635766377465685
131  -0.000626289684371185 -0.104051547445358
132  0.916080245589555 -0.0211907442252241
133   1.80490235922299 0.215569733935541
134   2.65072817385644  0.57561693752038
135   3.45544909001155  1.02182668915066
136   4.23493344093984  1.51783621853423
137   5.01588394220227  2.02841455723075
138   5.84224152250536    2.510216227533
139   6.81872457298933  2.88582456651204
140   7.88940224168441  2.95670858070538
141   8.86310030153631  2.50937530281929
142   9.25002827256381  1.97573112243162
143   9.39406258552246  1.43066332770747
144   9.37514905468441 0.906513053738951
145   9.25315776890801  0.41676957111683
146   9.09100487732283 -0.0274893882062907
147   8.80933810937123 -0.437645604154418
148   8.53383916418929 -0.695262416883271
149   8.33454680867854 -0.839731504543022
150   8.15243326224373 -0.953354649817515
151   7.97601668540882 -1.05279649931102
152    7.8048812052693 -1.14305432486992
153    7.6371201702322 -1.22799871344484
154    7.4719479408667 -1.30968581535701
155   7.30839851175804 -1.38946972957048
156   7.14515591066392 -1.46831724889932
157   6.98112703722803 -1.54668349759063
158   6.81610059408714  -1.6243132464951
159   6.65018793500881  -1.7006191837195
160   6.48294308496672 -1.77517473000948
161   6.31391553919671 -1.84750449703346
162   6.14288546178479 -1.91703238651397
163   5.96976242112266 -1.98317749261704
164   5.79450747200423 -2.04542107786724
165   5.61715731647029 -2.10331929412324
166   5.43780926837049 -2.15652247268911
167   5.25662314422516 -2.20478114289827
168   5.07380772901765 -2.24795138474693
169   4.88961400401264 -2.28599349219285
170   4.70432532382046 -2.31896797296369
171   4.51824255805098 -2.34702912860756
172   4.33166416602046 -2.37041568746991
173   4.14487081176679   -2.389437326147
174   3.95811456027704 -2.40445861984628
175    3.7716123762516 -2.41588191616656
176   3.58554242181212 -2.42413048758907
177   3.40004344572928 -2.42963290758764
178   3.21521678152406 -2.43280945080777
179   3.03113018708942 -2.43406102692418
180   2.84782273991251 -2.43376085254059
181   2.66531006305098 -2.43224880799086
182   2.48358923197514 -2.42982823636758
183    2.3026429229642 -2.42676482614081
184   2.12244255013679 -2.42328716964042
185   1.94295035715606 -2.41958859084024
186   1.76412066770071 -2.41582987106939
187   1.58590083612559 -2.41214255655434
188   1.40823281226128 -2.40863259067419
189   1.23105623693472 -2.40538405355556
190   1.05431286648527 -2.40246279405412
191   0.87794993938368  -2.3999197282635
192  0.701919180618996  -2.3977936275446
193  0.526171054018903  -2.3961133515354
194  0.350648285124379 -2.39489959277401
195  0.175283091087835 -2.39416619848737
196  -1.13960737998006e-06 -2.39392108890263
197  -0.175285756065291 -2.39416678856187
198  -0.350652109525784 -2.39490060340327
199  -0.526176743785493 -2.39611446052913
200  -0.701927154699636 -2.39779439030598
201  -0.877960078980957 -2.39991961723729
202  -1.05432449870203 -2.40246124525568
203  -1.23106847334584 -2.40538051855716
204  -1.40824501685927 -2.40862658817324
205  -1.58591289218007 -2.41213371495081
206  -1.76413295388751 -2.41581795811343
207  -1.94296357340992 -2.41957353297394
208  -2.12245754511573   -2.423269065227
209  -2.30266057996894 -2.42674395417078
210  -2.48361040365094 -2.42980505946093
211  -2.66533552891103 -2.43222396735783
212  -2.84785316749856 -2.43373515278409
213  -3.03116608636682 -2.43403540957061
214  -3.21525844921072 -2.43278495694822
215  -3.40009090009215 -2.42961063178754
216  -3.58559533625669 -2.42411152689695
217  -3.77167002453677 -2.41586731898022
218  -3.95817580019687 -2.40444933830891
219  -4.14493412505427 -2.38943417320326
220  -4.33172777345361 -2.37041929532723
221   -4.5183045406789 -2.34703991133943
222  -4.70438362311586 -2.31898611416119
223  -4.88966619886566 -2.28601899669871
224  -5.07385097245475 -2.24798414770473
225  -5.25665449926549 -2.20482094579192
226  -5.43782639109029   -2.156568842387
227  -5.61715844056086 -2.10337148538575
228  -5.79449227936802 -2.04547777028289
229  -5.96973083224996 -1.98323716082124
230  -6.14283994176236 -1.91709248780037
231  -6.31385773025578  -1.8475628106127
232  -6.48288879058056 -1.77522308986563
233  -6.65017355260329 -1.70063994990449
234  -6.81614960128977 -1.62429474685493
235  -6.98113932021759  -1.5466743626227
236  -7.14506979720939 -1.46835117774101
237  -7.30827569077922 -1.38952104795341
238  -7.47182057314296 -1.30974163709274
239  -7.63700485694181 -1.22805262131132
240  -7.80478736004962 -1.14310235439796
241  -7.97595029703994 -1.05283508894017
242  -8.15239068485347 -0.953383926303573
243  -8.33452146625818 -0.839752193783473
244  -8.53383000779281 -0.695270051196027
245  -8.80932468693432 -0.437647114432662
246  -9.09096987363715 -0.027499977721738
247  -9.25311141335552 0.416760929636583
248  -9.37509069331727 0.906504318202865
249  -9.39399377557635  1.43064794276024
250  -9.24996893343857  1.97567438034995
251  -8.86306200140197  2.50931492053183
252  -7.88939246002596  2.95668110036005
253  -6.81872984229769  2.88586199247889
254  -5.84227722834487  2.51034914071164
255  -5.01594375224074  2.02866838305777
256  -4.23497827600975  1.51821883859041
257  -3.45548054380393  1.02235024674346
258  -2.65078079262619 0.576269426276918
259   -1.8050582302589 0.216262761196124
260  -0.916459835285382 -0.0207353100107122
