// Id               X                Y
  1  -0.0889107153339432  1.80875591702087
  2  0.817687069255956  1.79681501145426
  3    1.7333688376181  1.75729616494811
  4   2.67389218477469  1.68319526125974
  5   3.58908828162249  1.59823388351134
  6   4.50900968058848  1.58361818367849
  7   5.42784688726076  1.64136457310674
  8   6.34141747903593  1.74513956755495
  9   7.25421089496228  1.83630947538546
 10   8.17081213028645  1.83184462579436
 11   9.07546708235968  1.64092072909855
 12   9.53196031260198  1.36363100753884
 13   9.85948890997169 0.940660672325652
 14   9.93184724070317 0.440971157190338
 15   9.70228069283237 0.0135379035747103
 16   8.95351535615932 -0.165622316389048
 17    8.2434586488245 0.00634722817084914
 18    8.0774304557603 0.0576790938743327
 19   8.01371060943645 0.0782802331726614
 20   7.96409581885421 0.0946291746154301
 21   7.91213413897749 0.112031292368708
 22   7.84682275201615 0.134253285646656
 23   7.76487948127749  0.16263427091855
 24   7.66672890361068  0.19722542374185
 25   7.55407327991551 0.237536981519434
 26   7.42885250129389 0.282840159968103
 27   7.29284371502608 0.332311610077025
 28   7.14750392386863 0.385117959689805
 29   6.99393861142759 0.440466862059875
 30   6.83295701267001 0.497625148950318
 31   6.66517165325535 0.555915346815936
 32   6.49109974768842 0.614706632142362
 33   6.31124190300899 0.673410509999122
 34   6.12613098043652 0.731483792621189
 35   5.93635293529915 0.788436916641395
 36   5.74254534045901 0.843843930827377
 37   5.54538113202774 0.897350545873302
 38   5.34554526253179 0.948677850550944
 39   5.14371057018532 0.997620958334201
 40   4.94051700779511  1.04404325101932
 41   4.73655623351653   1.0878676562374
 42   4.53236193777756   1.1290665396337
 43   4.32840528758292  1.16765152873058
 44   4.12509440068592  1.20366416182805
 45   3.92277661737118  1.23716784831092
 46   3.72174231312643   1.2682413227064
 47   3.52222894260753  1.29697358847629
 48   3.32442390659946  1.32346024567008
 49   3.12846488886047    1.347801020107
 50   2.93443691442958  1.37009820760633
 51    2.7423668361883  1.39045561433784
 52   2.55221796180233  1.40897749476006
 53   2.36388896014635  1.42576708054978
 54   2.17722070817467  1.44092459436439
 55     1.992012053968   1.4545450222264
 56    1.8080418718123  1.46671615357046
 57    1.6250922730171  1.47751734952742
 58   1.44296761256148  1.48701922051039
 59    1.2615057218952  1.49528406471883
 60   1.08058040326913  1.50236670486961
 61  0.900096495021615  1.50831532115088
 62  0.719980215456933  1.51317197748252
 63  0.540167995696687  1.51697270150853
 64  0.360596779621669  1.51974714235586
 65  0.181197943462991  1.52151795436269
 66  0.00189573760127023  1.52230011938561
 67  -0.177390237139779  1.52210041956615
 68  -0.356740180499796  1.52091721525891
 69  -0.536229191720077  1.51874058884707
 70  -0.715924628618229  1.51555280910007
 71  -0.895887378491655   1.5113289775373
 72  -1.07617755491266  1.50603766027961
 73  -1.25686382230607  1.49964130225448
 74  -1.43803439744585  1.49209627150554
 75  -1.61980701954147  1.48335248504441
 76  -1.80233492451397  1.47335270962458
 77  -1.98580619430125  1.46203178251024
 78   -2.1704349383357  1.44931610818786
 79   -2.3564446786843  1.43512378979424
 80  -2.54404671077317  1.41936560093273
 81  -2.73341816882912  1.40194672087288
 82  -2.92468487792675   1.3827688698385
 83  -3.11791226798313  1.36173236174377
 84  -3.31310439456182  1.33873773088721
 85  -3.51020819854082   1.3136869103537
 86  -3.70911903472381  1.28648424974065
 87  -3.90968436596088  1.25703780431584
 88  -4.11170431602697  1.22526129693983
 89  -4.31492931946156  1.19107704449634
 90  -4.51905588278422     1.15442004598
 91  -4.72372163103253  1.11524337577207
 92  -4.92850073882865  1.07352497928353
 93  -5.13290080228106  1.02927587395088
 94  -5.33636226162294 0.982549568873126
 95  -5.53826155917954 0.933452206059298
 96  -5.73791916817718 0.882152508484878
 97  -5.93461327321651 0.828890172492847
 98  -6.12759902196644 0.773981034382026
 99  -6.31613173180934 0.717817433205822
100  -6.49949020894785 0.660862955024115
101  -6.67699370266162  0.60364228702522
102  -6.84800356224847   0.5467289920497
103  -7.01189912785677 0.490735975202628
104  -7.16801863260581 0.436313916849333
105  -7.31556572394993 0.384159256184136
106  -7.45350450983111 0.335023956462841
107   -7.5804867896524 0.289710857245091
108  -7.69485658576625  0.24904007073982
109  -7.79477864644733 0.213777235545785
110  -7.87860647822605 0.184496682606242
111  -7.94584038404397  0.16127425705193
112  -7.99946861465354 0.142950930493489
113  -8.05045381804173 0.125716406656456
114  -8.11761322721063  0.10332140237372
115  -8.29928173162692 0.0447253334320158
116  -9.00999061111846 -0.147136238534813
117  -9.76796631863067 -0.00243374739779807
118  -10.0225602918835 0.410208360100397
119  -9.98339512795092 0.912232983452214
120  -9.68579965504327  1.35242933001751
121  -9.24887591502479  1.65246489525653
122  -8.35479402112585  1.87732640230983
123  -7.44006447673474  1.89667198949652
124  -6.52841681621303  1.80522418654786
125  -5.61640627325679  1.68989688139196
126  -4.69795301805121  1.61394805901606
127  -3.77592700271355  1.60844622900053
128  -2.85735503451959  1.67514930746902
129   -1.9132445620732  1.75312422406171
130  -0.999082996736335  1.77395646547999
131  -0.0947563379905005  2.40241128718954
132   0.82572378392562  2.39064453913995
133   1.74494936057538  2.34491857754174
134   2.66249359214335  2.27577083293702
135   3.58024080577629   2.2145253629892
136   4.49730328884062  2.20286185795662
137   5.41291265349254  2.26000822823395
138   6.32759481559985  2.36381910310603
139   7.24816148886099  2.45555726350852
140   8.17696214633006  2.44025905356583
141   9.07349709183613  2.19106986513596
142   9.53404597344161  1.90151726207578
143   9.96866305958596  1.44006575592836
144   10.2856380013902 0.835046454522957
145   10.4725596705846 0.178610852994747
146      10.6015968512 -0.471564682769685
147    10.565301538176 -1.37116378786308
148   10.3952443077118 -1.74272665824463
149   10.1478571153243 -2.06233578833892
150   9.84593346147111 -2.31823062318172
151   9.50934251141817 -2.50996981642228
152   9.15948778456221 -2.64076918859889
153   8.81232899086049 -2.71955126198545
154   8.47716427755006 -2.75725361624587
155   8.15826111977345  -2.7640905583748
156   7.85677404509129 -2.74849441324691
157   7.57218072924123 -2.71701222843856
158   7.30321125958303 -2.67458301742746
159   7.04837643856618 -2.62489800891464
160   6.80621050632919 -2.57071406422392
161   6.57534427517635 -2.51408608403777
162   6.35450260542438 -2.45653087605101
163   6.14248164019461 -2.39914605321789
164    5.9381298248901 -2.34270218954046
165   5.74034002308408 -2.28771861046692
166   5.54805246462889 -2.23452745817698
167   5.36026484748647 -2.18332740395473
168   5.17604502887981 -2.13422712487558
169   4.99454253677607 -2.08727870960687
170   4.81499663523334 -2.04250173526756
171   4.63674010554261 -1.99989931261869
172   4.45919889557862 -1.95946769480522
173   4.28188831913506 -1.92120107695693
174   4.10440669236375 -1.88509306722415
175    3.9264273440544 -1.85113607926182
176   3.74768997595498 -1.81931964948069
177   3.56799247068769 -1.78962845202254
178   3.38718442404067 -1.76204056789528
179    3.2051636919421 -1.73652633445613
180   3.02187668490037 -1.71304783719922
181   2.83732171236402 -1.69155884475458
182   2.65155267996526 -1.67200484403453
183   2.46467900624423 -1.65432292395058
184   2.27685808309936 -1.63844156860067
185   2.08827926449466 -1.62428075317638
186   1.89914194720052 -1.61175283820375
187    1.7096328089639 -1.60076454557764
188   1.51990749161513 -1.59121991676368
189    1.3300802289443 -1.58302383160328
190   1.14022231783127 -1.57608554884641
191  0.950368062667903 -1.57032181231955
192  0.760525434168207  -1.5656592557839
193  0.570688193865631 -1.56203603808756
194  0.380846482709469 -1.55940279251771
195  0.190993712387242 -1.55772306360555
196  0.0011288611344265 -1.55697343393536
197  -0.188745322965962 -1.55714352288877
198  -0.37862652588172 -1.55823598256765
199  -0.568517129844645  -1.5602665390318
200  -0.758426192771386 -1.56326404435207
201  -0.948367467697115 -1.56727043007352
202  -1.13835292948532 -1.57234039791204
203  -1.32838259777681  -1.5785406603902
204  -1.51843260967704 -1.58594856224587
205  -1.70844426678469  -1.5946499806932
206  -1.89831705171334 -1.60473652446206
207  -2.08790828744183 -1.61630222157306
208  -2.27704103697718 -1.62944006655338
209  -2.46551993350002 -1.64423891077548
210  -2.65315223576973 -1.66078113286616
211  -2.83976945061977 -1.67914128474701
212   -3.0252445131202 -1.69938556198451
213  -3.20950131538399 -1.72157169053188
214  -3.39251658889705  -1.7457488243465
215  -3.57431703464039 -1.77195730099167
216  -3.75497567482706 -1.80022841385077
217  -3.93461051882275 -1.83058451965062
218  -4.11338683569664 -1.86303974005327
219  -4.29152279175037 -1.89760131356002
220  -4.46929746412248 -1.93427141976346
221  -4.64706013220099 -1.97304908594559
222  -4.82523989351691 -2.01393158658284
223  -5.00435477394619 -2.05691452674155
224  -5.18501951489525 -2.10198953921165
225  -5.36795115626688 -2.14913822527599
226  -5.55397147943163 -2.19832065954311
227  -5.74400544631771 -2.24945651995614
228  -5.93907512384798 -2.30239678739289
229  -6.14028938813893 -2.35688408899849
230  -6.34883104118478 -2.41250017204375
231  -6.56594464722943 -2.46859951318585
232   -6.7929297892753 -2.52422814651968
233  -7.03114444187827 -2.57802544810423
234  -7.28201883540933  -2.6281023268443
235  -7.54706367366144 -2.67188063489014
236   -7.8278212101072 -2.70586942715361
237  -8.12566615285353 -2.72535913574358
238   -8.4413374428551 -2.72405425157979
239  -8.77407087462019 -2.69375440522736
240  -9.12020505654307 -2.62436001576358
241  -9.47125281588774 -2.50475911628531
242  -9.81205636410465 -2.32538617278284
243  -10.1213481986041 -2.08222412002953
244   -10.378666275958 -1.77602067228272
245  -10.5602912519539 -1.42233812379663
246  -10.6415497491432 -0.536737984492031
247  -10.5481229832879 0.118552796368869
248  -10.3999223500516 0.784002286334304
249  -10.1189198993193  1.40641320265546
250  -9.70761220480947  1.89307824141344
251  -9.25783800232499  2.20532672789768
252  -8.36860468244783   2.4850035669675
253  -7.43839860486948  2.51568299538005
254  -6.51575497959809  2.42383597597009
255  -5.60061858532146  2.30841756402256
256  -4.68500191952117  2.23303502538406
257  -3.76735548581439  2.22574039925182
258  -2.84877798753574  2.27425087020272
259  -1.93051025334305  2.33777600020249
260  -1.01133523581078  2.38247854916249
