// Id               X                Y
  1  -0.106232606978443  4.43539087505745
  2  0.884869156856041  4.38675611293158
  3   1.84318450816458  4.25605873102902
  4   2.75386326168349  4.03306228891416
  5   3.63351918093183    3.686157496983
  6   4.48351866336225  3.31519432652774
  7    5.3316429113247  2.95049883145225
  8   6.19285223279027  2.61874489681255
  9   7.06028444892241  2.31354155913063
 10   7.92187168975158  2.01021073643999
 11   8.76556802213603  1.66439847461336
 12   9.21021127041249  1.40283825713224
 13   9.61257654862529  1.04913946316107
 14   9.90930278665166 0.482511984630295
 15   9.78025315834947 -0.146035365902293
 16   9.06567987772466 -0.379291033923963
 17   8.61435183230533 -0.285530356592141
 18   8.53025804735489 -0.255873749926223
 19   8.46934699532145 -0.231897579680091
 20   8.40979363032318 -0.206440911869026
 21   8.34973801988461 -0.178721817298221
 22   8.28342903813091 -0.14575338387425
 23    8.2064821313927 -0.104366428751766
 24   8.11731751685681 -0.0522364530940073
 25   8.01643577941522 0.0120757810723446
 26    7.9054177630263 0.0892304859647814
 27    7.7861760268653 0.179245310040742
 28   7.66048741787364 0.281635333738076
 29   7.52978424017495 0.395524859767736
 30   7.39521706908147 0.519625654020536
 31   7.25791346890788 0.652061902402364
 32   7.11879339037059 0.790660552345632
 33   6.97808911622596 0.933644335759095
 34   6.83549167630601  1.07970082311977
 35   6.69045472449901  1.22778996711441
 36   6.54233414066641  1.37705335567118
 37   6.39044770616774  1.52677524781253
 38   6.23411124182468  1.67635170394646
 39   6.07266885418538  1.82525821128373
 40   5.90552406499967  1.97301588477979
 41    5.7321730956669   2.1191602547265
 42    5.5522370795448  2.26321827966891
 43    5.3654875342852  2.40469794186376
 44   5.17185992991593  2.54309116905344
 45   4.97145290392308   2.6778869579448
 46   4.76451398673589  2.80858934527613
 47   4.55141527301234  2.93473483761247
 48   4.33262371101416  3.05590546568742
 49   4.10867062425743  3.17173575642781
 50   3.88012413137591  3.28191377999466
 51   3.64756679602376  3.38617761630936
 52   3.41157952141342  3.48430906985797
 53   3.17273160970688  3.57612643880233
 54   2.93157605447174  3.66147785746487
 55   2.68864843354873  3.74023635735865
 56   2.44446711755303  3.81229740115741
 57    2.1995318963824   3.8775792086432
 58   1.95431773904806  3.93602563075701
 59   1.70926070219036  3.98761057180013
 60   1.46473469300503  4.03234206920938
 61   1.22102147246285  4.07026342130637
 62  0.978281538061343  4.10144880582333
 63  0.736537663896708  4.12599229604654
 64  0.495681156768016  4.14399198462994
 65  0.255500928168503  4.15553352211024
 66  0.0157232596664232  4.16067752601879
 67  -0.223953085915769  4.15945267755887
 68  -0.463832549850019   4.1518534673018
 69   -0.7042030037068  4.13784109843772
 70  -0.945310139838245  4.11734772348638
 71  -1.18732304314782  4.09028541229275
 72  -1.43029999589425  4.05656003381958
 73  -1.67416879757457  4.01608736968005
 74   -1.9187293689247  3.96880707045884
 75  -2.16367491674139  3.91469111229843
 76  -2.40862111508941  3.85374608669262
 77   -2.6531332959709   3.7860109293946
 78  -2.89674611681227  3.71155260249509
 79  -3.13897468532452  3.63046200851844
 80  -3.37931894320575  3.54285165736714
 81  -3.61726423009299  3.44885580416159
 82  -3.85228098769375  3.34863313781818
 83  -4.08382611451512  3.24237164056228
 84  -4.31134789897462   3.1302948857332
 85  -4.53429586568962  3.01266872402958
 86  -4.75213623519851  2.88980701149601
 87  -4.96437292654594  2.76207482587488
 88  -5.17057305490809   2.6298876566855
 89  -5.37039472822748  2.49370553615561
 90  -5.56361382530298  2.35402214277176
 91  -5.75014569908239  2.21135049562322
 92  -5.93005781013447  2.06620858257318
 93  -6.10357044425582  1.91910943313176
 94  -6.27104483296814    1.770559993537
 95  -6.43296057283659  1.62107133043231
 96  -6.58988614059412  1.47117970773228
 97  -6.74244639144488  1.32147534889021
 98  -6.89128871669571  1.17263470809834
 99  -7.03704524577644  1.02545364237915
100    -7.180280458462 0.880884879927915
101  -7.32138697074237 0.740106801838139
102  -7.46033507687741 0.604694753014385
103  -7.59636357885262 0.476758358992019
104  -7.72822287977534 0.358460373726266
105  -7.85471208062095 0.251338599975231
106  -7.97459361649519 0.156337523198103
107  -8.08636902092952 0.073997099350278
108  -8.18837091582404 0.0044188470524514
109  -8.27918053187544 -0.0528929419485024
110  -8.35835527468351 -0.0992242892115578
111  -8.42740685891794 -0.13683556980266
112  -8.49053817051126 -0.168932455112603
113  -8.55322742932549 -0.198638256714155
114  -8.61722573709909 -0.226734689325367
115   -8.7070491750307 -0.262379381750178
116  -9.15649180622445 -0.376872817764061
117  -9.88414521876124 -0.181399425259454
118  -10.0514928238684 0.389529895863515
119  -9.81070928178809 0.972966725591689
120  -9.43351137806897   1.3518298905397
121  -9.00169209808393  1.63252962839868
122  -8.16467193187147   1.9943270166191
123  -7.30255621469575  2.29626451287765
124  -6.42967418087916  2.58978982290728
125  -5.55953445467426  2.90714954422764
126  -4.70136240552242  3.26184490922451
127  -3.85525643195307  3.64861838200772
128  -3.00580344049239  3.99102800418857
129  -2.09999900182798  4.20785553350254
130  -1.08691370466869  4.34786421436123
131  -0.135400716160644  5.02173648081688
132  0.838675523990107  4.98709012584597
133   1.80662748775028  4.85270375985049
134   2.76573134240532  4.61808331028121
135   3.74104236150972  4.27784276951007
136   4.66550184086382   3.8986241744289
137   5.55672085932077  3.52603636085434
138   6.45163484863579  3.18102244795826
139   7.36648602519477  2.85124359205885
140   8.33764113944833  2.46407537588241
141    9.2565318025973  1.92653578720935
142   9.74500011232579  1.46709648071865
143   10.1298941676463 0.921707809896293
144   10.3947104304688 0.346861392515069
145   10.5520642355452 -0.140776054221253
146   10.7166740788061 -0.792453297889726
147   10.7327956537172 -1.90354948431807
148   10.5305135092343 -2.31465775380931
149   10.2558703844388 -2.62995439532328
150   9.93477647832976 -2.86192557142807
151   9.58442549700294 -3.01933499366005
152   9.22182926779181  -3.1089181101484
153   8.86220396364548 -3.13952085982188
154   8.51561548231662 -3.12182587982315
155   8.18691581301457 -3.06617566002743
156   7.87743755855398 -2.98129171260481
157   7.58666526280974 -2.87408597639918
158   7.31331921445881 -2.74997931951901
159   7.05588248554691 -2.61328592411079
160   6.81268371462272 -2.46742275921289
161   6.58171185122846 -2.31488417842622
162   6.36088487460557  -2.1574611706919
163   6.14863575157846 -1.99678758089714
164   5.94383955462989 -1.83446164204794
165   5.74556442125687 -1.67194371329696
166   5.55298340239255 -1.51051602181725
167   5.36535844702587 -1.35128388277199
168   5.18203802003645 -1.19518600017325
169   5.00245168885917  -1.0430031753829
170   4.82609676176117 -0.895362318617398
171   4.65251730188713 -0.752737132280779
172   4.48127948276717 -0.615449901010199
173   4.31194880245579 -0.483679274403173
174   4.14407380046783 -0.357476752092385
175   3.97717857671345 -0.236791383565509
176   3.81076397669702 -0.121499731710151
177   3.64431563039558 -0.0114371770787655
178    3.4773162780944 0.0935730380335878
179   3.30925977611937 0.193695590890071
180   3.13966455251998 0.289065032131801
181    2.9680848388834 0.379774181383905
182   2.79411860788683 0.465868419732399
183   2.61741176569217 0.547344783543923
184   2.43765881698593 0.624154432961754
185   2.25460098653123 0.696206925232254
186    2.0680236495706 0.763374777516914
187   1.87775578471488 0.825497110646857
188   1.68367471190209 0.882381799758718
189   1.48571906158622 0.933806552000495
190   1.28391101926671 0.979520559555597
191   1.07838492012424  1.01924941111336
192  0.869413909415126   1.0527060082327
193  0.657422582741821  1.07960852082459
194   0.44297598369424  1.09970304880073
195  0.226745964031855  1.11278561434291
196  0.00946815410866115  1.11871819375117
197  -0.208094659552349  1.11743702684614
198  -0.425177010529293  1.10895504758449
199  -0.641030285683205  1.09336063408604
200  -0.854948756872642  1.07081243148386
201  -1.06630587838167  1.04152814077748
202  -1.27459192676454  1.00576653640624
203  -1.47943803080266 0.963805639182163
204  -1.68061771897593 0.915922333024416
205  -1.87802886443245   0.8623776386623
206  -2.07166643078511 0.803408678302793
207  -2.26159647445191  0.73922563740604
208  -2.44793754745048 0.670010998160158
209  -2.63085094585702 0.595918728520594
210   -2.8105381533275 0.517072178505536
211  -2.98724254902548 0.433560537638608
212  -3.16125243453008 0.345434542766174
213  -3.33290305510449 0.252702630590757
214  -3.50257610420139 0.155328952079758
215    -3.670695979843 0.0532346746577726
216  -3.83772273820458 -0.0536961649096707
217  -4.00414227816636 -0.165605325441677
218  -4.17045482932869 -0.282643138501365
219  -4.33716332064862 -0.404945738888513
220  -4.50476363379291 -0.532608033666536
221  -4.67373897011048 -0.66565470124027
222  -4.84456038747567 -0.804012287542031
223  -5.01769479027696 -0.947485586915484
224    -5.193620208332 -1.09574057421569
225  -5.37284632803784 -1.24829417487299
226  -5.55593664161798 -1.40450879679901
227  -5.74352821561595 -1.56358806585132
228  -5.93634662114853 -1.72457069415228
229  -6.13521726285464 -1.88632208181906
230   -6.3410824505316 -2.04752880629437
231  -6.55506204426983 -2.20671787678445
232  -6.77865692023582   -2.362345141536
233  -7.01400426744558 -2.51282046286445
234  -7.26354666381704 -2.65605456491896
235   -7.5293902330531 -2.78891680424045
236  -7.81330143118611 -2.90718570572856
237  -8.11679603589926 -3.00548123437043
238  -8.44075518521152 -3.07693267597673
239  -8.78443017314913 -3.11281000552772
240  -9.14381602314399  -3.1025719850583
241  -9.50989393301055 -3.03494352649726
242     -9.86844964822 -2.89998200529648
243   -10.203206205832 -2.68956270480395
244  -10.4976291962517 -2.39345176858583
245  -10.7259197618396 -1.99855870451456
246   -10.781541131916 -0.883987150453885
247  -10.6591376864536 -0.223375797931941
248  -10.5340354915368 0.271415624525604
249  -10.3198749232696 0.822606299945149
250  -9.96829704713632  1.38816754480521
251  -9.50090518545498  1.87015540301413
252  -8.59571849167987  2.43315378689021
253  -7.62214400561224   2.8259786713981
254  -6.69549100649841  3.14856326604408
255  -5.79478288248872  3.47957462479379
256  -4.90405865259199  3.84234837366682
257  -3.97055903075047  4.22841559668179
258  -2.99201159804842  4.57475610061521
259  -2.04799570533104  4.81123446745499
260  -1.09806872033454  4.95871816337673
