// Id               X                Y
  1  -0.459964668617349   9.6488856545423
  2  0.673153947631855   9.5251253512158
  3   1.76191218035532  9.17313295915423
  4   2.80307217362071  8.66809111117591
  5   3.81127417557832   8.0803730410786
  6   4.78129790379088   7.4471271807472
  7   5.63167325233736   6.6981699267363
  8    6.2990581598733  5.83610171782627
  9   6.87024623957799  4.98057942782633
 10   7.50269802112683  4.12271873810047
 11   8.19745822763349  3.29060930309427
 12   8.65121327659697  2.77971358888683
 13   9.07681219433344  2.24380859578948
 14   9.36889806343977  1.64683013617798
 15   9.36511525425397  1.09981712600088
 16   8.87679999117031 0.558168327319532
 17   8.27445092902451 0.481500957165059
 18   8.20024587322892 0.494436578890448
 19   8.13466231431145 0.510105866799721
 20   8.06843960051992 0.530208445556933
 21   7.99987710889979 0.555681226143267
 22    7.9242584707764 0.589709361960533
 23   7.83855292973437 0.636373397761845
 24   7.74297793742949 0.699719628512527
 25   7.64022005943388 0.783152359569824
 26   7.53432642319642 0.889166907091202
 27   7.42979055321598  1.01919992425385
 28   7.33089367516927  1.17359510511454
 29   7.24122235743341  1.35164028092013
 30   7.16329709747699  1.55165320871334
 31   7.09829273734353  1.77112667058989
 32   7.04588793347042  2.00698281641523
 33   7.00431352542962  2.25598342209689
 34   6.97063533610678  2.51521055639157
 35   6.94119914258193  2.78231658967054
 36   6.91208790965446  3.05533305754347
 37   6.87949754533073  3.33231645659029
 38   6.84001261658896  3.61130830193398
 39   6.79073668417602  3.89070081491438
 40   6.72924632083901  4.16956628983659
 41    6.6534526583865  4.44757914545092
 42   6.56147974830996  4.72470009455416
 43   6.45159832555304  5.00090122932285
 44   6.32221128312139  5.27600666196318
 45   6.17188585386699  5.54961293652623
 46   5.99943607106163  5.82104834956077
 47   5.80406556287424  6.08934899459565
 48   5.58557061946168   6.3532565977405
 49    5.3445214463455  6.61131464298446
 50    5.0822353660483   6.8621525519135
 51    4.8005396977707  7.10479767163512
 52   4.50154617697929  7.33878064713429
 53   4.18755773139248  7.56403047701255
 54    3.8611799224328  7.78060119197144
 55   3.52578319130098  7.98820527070112
 56   3.18631389283828  8.18562219425904
 57   2.84782500204069  8.37144791750983
 58   2.50541798744325  8.54896872532546
 59   2.15714276293474  8.71848488993452
 60   1.80662650331912  8.87648395895047
 61   1.45707981938091  9.01902721910651
 62   1.11046619995328   9.1422432548354
 63  0.771437672858478  9.24135411734367
 64  0.465285327711832  9.30881391635267
 65  0.202825375026028  9.34701832624508
 66  -0.0140754008175745  9.36298644877062
 67  -0.205809721022481   9.3643459479365
 68  -0.418323178739218  9.35178973346507
 69  -0.676248063850284  9.31807112164567
 70  -0.979453295613431  9.25558463389658
 71  -1.31790964835081  9.16096071274842
 72  -1.66601434305693  9.04093633942912
 73  -2.01857659642515  8.90016849500348
 74  -2.37384324017899  8.74236234559391
 75  -2.72905936116163  8.57125060137672
 76  -3.08048017117456  8.39045727473895
 77  -3.42558039426208  8.20226862675167
 78  -3.76761829609464   8.0048214266385
 79  -4.10752078972754  7.79638508235521
 80  -4.44023968167682  7.57822797671222
 81  -4.76159262388847  7.35113085168617
 82  -5.06863430166243  7.11524374533185
 83  -5.35900492321678  6.87060215087393
 84  -5.63061545009218  6.61749219752143
 85  -5.88161197668583   6.3566394609969
 86  -6.11049873045256  6.08923464022319
 87  -6.31634606420625  5.81676519227633
 88   -6.4989566430934  5.54069981999467
 89  -6.65882778624702  5.26225196847417
 90  -6.79696246055331  4.98232431139729
 91  -6.91468937076785  4.70153376761279
 92  -7.01354749959304   4.4202539852274
 93  -7.09522850212382  4.13868018591685
 94  -7.16156776960581  3.85694450683529
 95  -7.21458340190871  3.57531097310538
 96  -7.25656519783637  3.29442570422819
 97  -7.29019387028847  3.01546695150247
 98  -7.31861825242859  2.74001860604027
 99  -7.34540388437589  2.46980496673042
100  -7.37433761872511  2.20664575402007
101  -7.40911785788288  1.95269273931626
102  -7.45294295882723  1.71064135366466
103  -7.50804734139135  1.48363074747896
104  -7.57531110902066  1.27486950928064
105  -7.65406233656265  1.08720877922123
106  -7.74210864595744 0.922796674702641
107   -7.8359768409348 0.782822718710337
108  -7.93135019860703 0.667322947729921
109  -8.02374914008077 0.575032467383082
110   -8.1095468813511  0.50329914590574
111   -8.1873276563253 0.448117129864645
112  -8.25906678887765 0.404520809080478
113  -8.32919260991861 0.368013477715688
114   -8.3996087889779 0.336939129727712
115  -8.47868062633472 0.308238439704508
116  -9.09110733623194 0.275985976291704
117  -9.66320655452903 0.730129306042099
118  -9.73868908569672  1.25858117227717
119  -9.50868600487355  1.87417665323652
120  -9.11611317327475   2.4341191275034
121  -8.68049788833153  2.96127358050165
122  -7.99789078277048  3.80460246397973
123  -7.36778941535158  4.66786652421154
124  -6.79869827243381  5.52765024860023
125  -6.17992807144232  6.38838072135688
126  -5.36363096059978    7.170566481717
127  -4.48339077873476    7.875108395101
128  -3.55249424890822   8.4741010631879
129   -2.5675841215933  8.97141358629958
130  -1.53134753517124  9.36764662224798
131  -0.275244895314667  10.1844332056329
132  0.842194316006549  10.0793099613302
133   1.90941212622134  9.73807308813672
134   2.91937408410939  9.25171505609378
135   3.88276155108408  8.67939464172296
136   4.79686331727189  8.03073351158578
137   5.63996946931947  7.28349432795506
138   6.39629288073241  6.44360920721127
139   7.08926361552286  5.56008729561207
140   7.76865389067557  4.68315633340568
141   8.45438528603832  3.82916912166131
142   8.87533319499905  3.27797711692064
143   9.27625593006476  2.70775008187294
144    9.6531981849784  2.10490167212912
145   10.0102552500322  1.49114190960199
146   10.3649212607106 0.891603312265739
147   10.8280132232238 -0.258176304262666
148   10.7692611476472 -0.782623316871888
149   10.5908610245462 -1.21169376716368
150   10.3318839344767 -1.55720595254092
151   10.0172532655812 -1.82394250848975
152   9.66826578578274 -2.01480582083251
153   9.30384659129931 -2.13451814068311
154   8.93736805143181 -2.19047676276121
155    8.5762681410186 -2.19038622408182
156   8.22403653928739 -2.14039625105417
157   7.88241476410399 -2.04468144316979
158   7.55290964043161 -1.90593461745004
159   7.23756519617294 -1.72622974032001
160   6.93914660373957 -1.50795004062504
161    6.6608742219028 -1.25459143235637
162   6.40583901983523 -0.97126065191325
163   6.17629237948454 -0.664707355840685
164    5.9730634754304 -0.342836375291752
165   5.79530309123275 -0.0137854923359687
166   5.64061324891838 0.315210034995623
167   5.50550362062797 0.638760198293429
168   5.38601859695608 0.953621387702272
169   5.27833086887294  1.25822767426964
170    5.1791190298271  1.55189329588027
171   5.08567691864199  1.83427901305213
172   4.99586281013103  2.10522494244041
173   4.90800391845307  2.36474363391092
174   4.82079882769731  2.61303950764605
175   4.73321968332921  2.85053017430809
176   4.64440560388107  3.07788341354553
177    4.5535334419859  3.29609201980756
178   4.45964984435502  3.50659741339196
179   4.36149071850982  3.71137007367958
180   4.25739321599807  3.91274180056092
181   4.14531923859426  4.11305033070143
182   4.02287889430236  4.31436635744872
183   3.88730096854607  4.51835558846447
184   3.73529197372197  4.72628686378895
185    3.5626096837522  4.93928054740923
186   3.36339688149111  5.15848580704717
187   3.13262292042376  5.38193556839537
188   2.87821134027679  5.59579319584348
189   2.60629237147419  5.79205004916878
190   2.31770150297466  5.96876234307566
191    2.0143777365764  6.12389325903446
192   1.69971693116358  6.25559869028352
193   1.37388325491091  6.36410314194525
194   1.01566453024542  6.45420050240842
195  0.610905012409461  6.52342928645071
196  0.142761026244122  6.56593818411851
197  -0.371448537873766  6.57189989735529
198  -0.849129870511326  6.53974197816911
199  -1.26332004243642  6.47873088964476
200  -1.63005474656444  6.39527623024289
201  -1.96415465300898  6.29207986033299
202  -2.28739714605064  6.16461818784245
203  -2.60003875441506  6.01229006619381
204  -2.89807650840361  5.83692814373357
205    -3.178486365638  5.64114977792259
206  -3.44002453647773  5.42737504924482
207  -3.68099921988615  5.19924420407745
208  -3.89430379211336  4.96796059404128
209  -4.07742185567253  4.74352276423696
210  -4.23633956655838  4.52602043564627
211  -4.37647249363519  4.31384101859636
212  -4.50173672924089   4.1055146014411
213  -4.61518866197225  3.89945195489434
214  -4.71937225105971  3.69375240680251
215  -4.81644120186166  3.48622661706925
216  -4.90819582148394  3.27454655835291
217  -4.99608284548019  3.05650951374507
218   -5.0812134145179  2.83033234294453
219   -5.1644770929815  2.59474654114622
220  -5.24671479596274  2.34889464039945
221  -5.32887027182022  2.09221334463435
222  -5.41210816070949  1.82436837257014
223  -5.49791488096395  1.54522311636156
224  -5.58819391527929   1.2548215036148
225  -5.68535795822504 0.953391578012977
226  -5.79239832499773 0.641443321435098
227  -5.91286478734835 0.320110681278297
228   -6.0506599067133 -0.0082297375148167
229  -6.20962242816094 -0.339400375486961
230  -6.39299073443609 -0.667366425278654
231   -6.6028924014387 -0.984761657195867
232   -6.8400157738595 -1.28374989907199
233  -7.10359561816646 -1.55690913318554
234  -7.39175951622175 -1.79787781620212
235  -7.70212288005802 -2.00156213447268
236  -8.03237746663971 -2.16381733437102
237  -8.38057808764504 -2.28067541686846
238  -8.74484327026664 -2.34731734479543
239  -9.12218488073608 -2.35712845490343
240  -9.50631928486362 -2.30145707444979
241  -9.88511785110721 -2.17092744111261
242  -10.2401088598742 -1.95804008429314
243  -10.5498410610975 -1.65720900523075
244  -10.7899551966645 -1.26020811406969
245  -10.9223338365698 -0.750006495961194
246  -10.6279816430661  0.42352212430399
247  -10.3440050811182  1.05823791565291
248  -10.0461193171111  1.70397250350424
249  -9.71394763408876    2.334772692797
250   -9.3435202783056  2.92699462114593
251  -8.94187649515937  3.49396426611588
252  -8.27076870992184  4.36136238823629
253  -7.59752660312769   5.2436336954331
254  -6.91386937473337  6.13504103589222
255     -6.17538886356  6.99570804801783
256  -5.35479662484475  7.77965729057043
257  -4.45539092485536  8.47409520151861
258  -3.48924906682613  9.07352679448403
259  -2.46827671913614  9.57532147223577
260   -1.3975421255018  9.96666372093051
