// Id               X                Y
  1  -0.108954517140502  5.82978142297889
  2  0.974132627462996  5.77752512640855
  3   2.02699214121124   5.6044557055739
  4   3.01098271085165  5.28236551229753
  5   3.97937282929991  4.83674711202047
  6    4.7594963136292  4.30854301423623
  7   5.50655353335228    3.772600115715
  8   6.27806602722022   3.2680428711554
  9   7.07040565298968  2.79539195028564
 10   7.86762876601401  2.33976461917348
 11   8.65664519719706  1.87279418843552
 12   9.07675522748919  1.56294166769966
 13   9.45826643642806  1.17725542001178
 14   9.74284181668713 0.593531744395395
 15   9.61889921694574 -0.0470280225169914
 16     8.928224092123 -0.309839109760221
 17   8.49461403119189 -0.226700573335515
 18   8.38989389473156 -0.187252741188075
 19   8.32271118355787  -0.1577019157106
 20   8.25720892092405 -0.125632893681654
 21   8.19277433467183 -0.0908298216079237
 22   8.12702013459471 -0.0519501161573483
 23   8.05626163619052 -0.00616315489657118
 24   7.97784653749276 0.0494811812643332
 25   7.89083959700862 0.117470639179333
 26   7.79570699742388 0.199588174098944
 27    7.6937715031297 0.296892270990453
 28   7.58665568348234 0.409792006201277
 29   7.47579905907782 0.538255027085289
 30   7.36203724965197 0.682196214612562
 31   7.24550633980727 0.841667988968771
 32   7.12806090398669  1.01328714422255
 33   7.01120336351052  1.19274040257443
 34   6.89445446193121  1.37793234287749
 35   6.77687375030892  1.56730532944157
 36   6.65736582660626  1.75957396140088
 37   6.53478487397914  1.95367061867389
 38   6.40799111239434  2.14871107968664
 39   6.27588374383706  2.34395956389698
 40   6.13742288513572  2.53878836075102
 41   5.99164876026101  2.73263309774769
 42   5.83770287280611  2.92494831015625
 43   5.67485221632312  3.11516959771103
 44   5.50251444040776  3.30268794352174
 45   5.32028008915482  3.48683909757955
 46   5.12792798666917  3.66690740456702
 47   4.92543137564513   3.8421404265653
 48   4.71295480693339  4.01176917763525
 49   4.49084407171778  4.17502907145884
 50   4.25961280098027  4.33117842425811
 51   4.01992920693946  4.47951377367326
 52   3.77260467452658  4.61938352221843
 53   3.51858269556663    4.750202809752
 54   3.25892243886608  4.87147257427133
 55   2.99476718987324  4.98280407138866
 56   2.72728660771609  5.08394637163519
 57   2.45758806174307  5.17480878083157
 58   2.18661119792018  5.25546478100193
 59   1.91504772999346  5.32612416083435
 60   1.64334123517095  5.38707184626816
 61   1.37178573846626   5.4385938146243
 62   1.10066489464746  5.48092460843294
 63  0.830326190604629  5.51423876383331
 64  0.561116931768429   5.5386774438701
 65  0.293192274521969  5.55437738907184
 66  0.0263047835764044  5.56146782008641
 67  -0.240229711417054  5.56002815911049
 68  -0.507261250229151  5.55004563082491
 69  -0.775397002434484  5.53142238130965
 70  -1.04478907604448  5.50402424144226
 71  -1.31522021997873  5.46771707675929
 72   -1.5863253339834  5.42236079787269
 73  -1.85776577885243  5.36777643353881
 74  -2.12926670376324  5.30372286800728
 75  -2.40052339227365   5.2299134274043
 76  -2.67106066958399  5.14607513141372
 77  -2.94014878107036  5.05202354491245
 78   -3.2068207639885  4.94771904168949
 79  -3.46996183342765  4.83328801958268
 80  -3.72841484166567  4.70901392136233
 81   -3.9810641422696  4.57531240100949
 82  -4.22688785009085  4.43270342598232
 83  -4.46498516422506  4.28178734808232
 84  -4.69459000516975  4.12322667106342
 85   -4.9150801799471  3.95773194075383
 86   -5.1259871489888  3.78604887617463
 87  -5.32700751176167  3.60894413669182
 88  -5.51801445815129  3.42718854233128
 89  -5.69906597604694  3.24153863933132
 90  -5.87040662572106  3.05271959422932
 91  -6.03246098339525  2.86141376979367
 92  -6.18581888643956  2.66825936494468
 93  -6.33121458711468  2.47386198000014
 94  -6.46950301845854  2.27881929038843
 95  -6.60163604304079   2.0837561052625
 96  -6.72863972258583  1.88936508118941
 97  -6.85159071825714  1.69644812531258
 98  -6.97158647298263  1.50595540677755
 99  -7.08969974256348  1.31902326647042
100  -7.20689971842116  1.13702315808698
101  -7.32388068504022  0.96168740595387
102  -7.44007021813865 0.796265656810442
103  -7.55332262232054 0.645204072914214
104  -7.66326791270939 0.509250965169008
105  -7.76943000910692 0.388492961389867
106  -7.87070585294306 0.283059889756036
107  -7.96573783196172 0.192726543603062
108  -8.05335879545249 0.116658518327721
109  -8.13313116828103 0.0532633357122353
110  -8.20591137898547 0.000151738094255066
111  -8.27418891011695 -0.0456954427018651
112  -8.34153983362844 -0.0872547673211255
113  -8.41029663665897 -0.126026390645433
114  -8.48118886281378 -0.162230877253389
115   -8.5966488091342 -0.213277908198698
116  -9.02819236803039 -0.323362066475711
117  -9.73844290820013 -0.109910418981288
118   -9.9037534269253  0.51648396502224
119  -9.65262899997424  1.11230544768548
120  -9.28796135428233  1.51179653899737
121  -8.87731629554808  1.83246119050155
122  -8.09452316097265  2.30881746542574
123  -7.29678137338824  2.76337076647944
124  -6.49968196344527  3.22951804198425
125  -5.71963857545395   3.7248249214111
126  -4.96483564831561  4.25357715935205
127  -4.19638289449534  4.78420910979149
128  -3.24036728931236  5.24583752591798
129  -2.25639684477477  5.57545421924668
130  -1.18661783587616   5.7349071608428
131  -0.150236385472942  6.41581014769333
132  0.891688320679056  6.36260983376573
133   1.92712758065945  6.18312485383565
134   2.94166686883415  5.87011194106101
135   3.91341052225886   5.4374362928872
136   4.84037967911047  4.91322175764064
137   5.72900539045827  4.34727620163667
138   6.59197571895699  3.80132617193897
139   7.43608609889379  3.29511890270263
140    8.3252650389248  2.75161176385622
141   9.16876816007145  2.10551951620201
142   9.61810118666278  1.60967678586259
143   9.97739314773927  1.04585732154347
144   10.2316601964045 0.454281315347389
145   10.3818770128075 -0.0422498222982913
146   10.5304228816442 -0.688026395137621
147    10.537686416144 -1.73903623330769
148   10.3475250513414 -2.17417076479987
149   10.0851736352301 -2.50848252442602
150   9.77757686024261 -2.75664413142255
151    9.4412377881545 -2.92902233313543
152   9.08890539012935 -3.03290817999946
153   8.73293096232004  -3.0748301569898
154   8.38388597180782 -3.06254897350856
155   8.04897921438778 -3.00469385213852
156   7.73199179420323 -2.90957128076087
157   7.43419389437576 -2.78439895253765
158   7.15542648148307 -2.63518653695582
159   6.89496012532687 -2.46703983394936
160   6.65210920832294 -2.28467758298028
161   6.42639306740423 -2.09278311837965
162   6.21485407804852 -1.89349735307241
163    6.0143199486997 -1.68780935933555
164   5.82338172386358 -1.47787068571872
165   5.64086622141566 -1.26584838359632
166   5.46562888161385 -1.05369926474084
167   5.29655411912606 -0.843121201360897
168   5.13258549756729 -0.635549199923186
169   4.97275655199659 -0.432172619368997
170   4.81621125969807 -0.23395861984554
171   4.66221043741927 -0.0416726895177314
172   4.51012446863864 0.144106917626349
173   4.35941525575058 0.322979225123808
174   4.20961150784803 0.494711132710446
175   4.06028154722208 0.659224856978316
176   3.91100695151938  0.81658033480319
177   3.76135889388656  0.96695292722991
178   3.61087745064865  1.11060836705931
179   3.45905288130488   1.2478773858969
180   3.30530736960102  1.37913178261041
181   3.14897631634173  1.50476207361888
182   2.98929034019092   1.6251546389342
183   2.82536294301331  1.74066392319753
184   2.65619416638381  1.85157362624763
185   2.48070594796462  1.95804158369939
186   2.29782582482889  2.06002877648384
187    2.1066242103043  2.15722568388385
188   1.90647997432326  2.24900606104062
189   1.69720810085148  2.33444565093962
190   1.47906929732343  2.41242168393165
191   1.25263804871777  2.48175842708848
192   1.01861265962394   2.5413467422351
193  0.777710182821003  2.59018821213492
194  0.530739289162895  2.62738104916515
195   0.27882854808961  2.65211452036308
196  0.0236629147692768  2.66373418741555
197  -0.232506518832657  2.66187706145546
198  -0.487218194787281  2.64658419515396
199  -0.738317162347502  2.61828513069949
200  -0.984242170051434  2.57766953890604
201  -1.22395276342172  2.52556138078997
202  -1.45667627036402  2.46287159614988
203  -1.68169960156324  2.39061341835938
204  -1.89833007313917  2.30991206241478
205   -2.1060259847154  2.22194682051695
206  -2.30458841508803   2.1278205612274
207  -2.49427314307151   2.0284157052642
208  -2.67575666429905  1.92430704798372
209  -2.84999537525831  1.81575703244829
210  -3.01806066356849    1.702770698003
211  -3.18101007702337  1.58517175307577
212  -3.33981329548303  1.46267205155534
213  -3.49532428061272  1.33492386188136
214  -3.64828233736345  1.20155600755875
215  -3.79932707184061  1.06219965095931
216   -3.9490178543392 0.916509667343129
217  -4.09785352692281 0.764185736233048
218  -4.24629153658838 0.604994975981314
219   -4.3947674238297 0.438795910404093
220  -4.54371598709095 0.265562175997052
221  -4.69359485081561 0.0854039080545838
222   -4.8449099682867 -0.101414703293325
223   -4.9982411981084 -0.294461773592252
224   -5.1542649284209 -0.493126331752728
225  -5.31377016876531 -0.696606307670464
226  -5.47766487356284 -0.903893365217859
227  -5.64697071016571 -1.11375448602582
228  -5.82280733539497 -1.32471452984148
229  -6.00637247393455 -1.53504939861555
230  -6.19893612409074   -1.742807066599
231  -6.40191748515182 -1.94590639987415
232  -6.61785968104334 -2.14295686738339
233   -6.8505974909434 -2.33283129053391
234  -7.10145791678824 -2.51135455066575
235   -7.3713452119354 -2.67365887567351
236   -7.6612499207641 -2.81450577953316
237  -7.97168538474686 -2.92777848322419
238  -8.30189032442958 -3.00614112758996
239  -8.64878012504235 -3.04106200700678
240  -9.00598146808301 -3.02345381711185
241  -9.36374531579534 -2.94480837483424
242  -9.71039778976849 -2.79768471050871
243  -10.0338996793413 -2.57385490560709
244  -10.3187076655679  -2.2617250597381
245  -10.5379305043076 -1.84773303528779
246  -10.6070904445393 -0.806773121860321
247  -10.5020533807465 -0.152739087939929
248  -10.3834122785326 0.351036401266366
249  -10.1633118409887 0.953803231642141
250  -9.83019056707785  1.53350090058048
251  -9.39728040127359  2.04478128626809
252  -8.56429132210674  2.70683188757811
253  -7.67404117526576  3.25412697016812
254  -6.82324978365793  3.75723327147432
255  -5.97469222029605  4.28632626230573
256  -5.09071156555491  4.85069617408828
257  -4.17177667673022  5.38405634651961
258  -3.20861414283841  5.83207313034416
259  -2.20417002875255  6.15695895607706
260  -1.19059158751771  6.34469241886389
