// Id               X                Y
  1  -0.0843141445226415   1.8727447212453
  2  0.850770736761253  1.89099969636974
  3    1.7838743039053  1.89445300989848
  4   2.70763644850125  1.88911214623885
  5   3.69001566332879  1.84130247052758
  6   4.61065340704042  1.78729205830782
  7   5.53164676405583  1.82426199545165
  8   6.44404164332805  1.95216900005112
  9   7.35116509189596  2.10493768697528
 10    8.2681803542085  2.15411098678159
 11   9.15970197046392  1.91973376694142
 12   9.55916274030131  1.58141875032971
 13   9.79095823796106  1.10268304202135
 14   9.75738676939862 0.581548441490942
 15   9.45191974405057  0.18257808595496
 16   8.72487060373485 0.0426491156928234
 17   8.10509997181709 0.197104699746028
 18   7.97904569887461 0.240006777258185
 19   7.91488088990803 0.263186092026763
 20   7.86230423225833 0.282793541289031
 21   7.80520570622677  0.30469661260714
 22   7.73235507201654 0.333463336637715
 23   7.64068756314894 0.370844855434491
 24   7.53137189788521 0.416872790472952
 25   7.40718926613956 0.470654779417386
 26   7.27125078208889 0.530782956255883
 27   7.12627402432582 0.595675418524982
 28   6.97423749213859 0.663837017007113
 29   6.81641582719041 0.733958244584582
 30   6.65358158271549 0.804909386598008
 31   6.48618385613923 0.875714788089153
 32   6.31446711974119 0.945532713679423
 33   6.13855118591229    1.013638875175
 34    5.9584913208094  1.07941090439757
 35   5.77432918485084  1.14231372757849
 36   5.58613975533008  1.20188721235785
 37   5.39407482984803  1.25773801304244
 38   5.19839950030685  1.30953729492944
 39    4.9995154201987  1.35702472154526
 40   4.79796545921395  1.40001697251949
 41   4.59441848663375  1.43841716146293
 42   4.38963816608297  1.47222104216043
 43   4.18444257529651  1.50151715820988
 44   3.97966051620823  1.52648028978887
 45   3.77608647389377  1.54735942118205
 46   3.57443258083941  1.56446217172292
 47   3.37527706360574  1.57813726127142
 48   3.17901647556493  1.58875600094331
 49   2.98583801970489  1.59669400675028
 50   2.79572740404435  1.60231525811339
 51   2.60851331562147  1.60596094188312
 52   2.42393253519167  1.60794429924444
 53   2.24169327322526  1.60855066021416
 54   2.06152054679541  1.60804046613528
 55   1.88317876610435  1.60665298439297
 56   1.70647551533657  1.60460921139989
 57   1.53125402726579  1.60211342187351
 58   1.35738122372522  1.59935349664679
 59   1.18473580907639   1.5965004520497
 60   1.01319857013089  1.59370761131893
 61  0.842645504100767  1.59110974889865
 62  0.672943655057835   1.5888224017996
 63  0.503949280378404  1.58694142413521
 64  0.335507902617768  1.58554277526941
 65  0.167455787743771  1.58468248032238
 66  -0.000377593746873004  1.58439668146818
 67  -0.168166514387577  1.58470170350657
 68  -0.336085663805549  1.58559407935411
 69  -0.50430680767322  1.58705051240519
 70  -0.67299567787339  1.58902778719991
 71  -0.842309375328173  1.59146267288451
 72  -1.01239461777392  1.59427189015075
 73  -1.18338720151609  1.59735222467255
 74  -1.35541306570444  1.60058086129268
 75  -1.52859137224094    1.603815977807
 76  -1.70304004484846  1.60689757137783
 77  -1.87888413542201  1.60964839119273
 78   -2.0562669392251  1.61187471989689
 79  -2.23536262391783  1.61336660769436
 80  -2.41638709247138  1.61389708867444
 81  -2.59960124721219  1.61322002990949
 82  -2.78529908554012  1.61106672710505
 83  -2.97377432255025  1.60714219906521
 84  -3.16526543848856  1.60112308766577
 85  -3.35988959294137  1.59265952963481
 86   -3.5575854777842  1.58138268598763
 87  -3.75808555345224  1.56691783017427
 88  -3.96092556856812  1.54890112524134
 89    -4.165482071252  1.52699775801667
 90  -4.37102066317017  1.50091987780961
 91  -4.57674293371277  1.47044348020557
 92  -4.78182953077514   1.4354231506154
 93  -4.98548156883265  1.39580293259653
 94   -5.1869611433452  1.35162151464256
 95  -5.38562762822179  1.30301098549569
 96  -5.58096342027183  1.25019035809958
 97  -5.77258298438354  1.19345699021054
 98  -5.96022249950402  1.13317983064687
 99  -6.14371211137512  1.06979759033616
100  -6.32293590690939  1.00382302110969
101  -6.49778453453825 0.935852625633193
102  -6.66810228221012 0.866580162972885
103  -6.83362572003079 0.796812454448936
104  -6.99390494820708 0.727487314756013
105  -7.14818956664881 0.659696341712378
106  -7.29525632995286 0.594716296669438
107  -7.43320264949405 0.534030171883029
108  -7.55938217913054 0.479256353443982
109  -7.67072026294218 0.431906423969383
110  -7.76443801959833 0.393028490662416
111  -7.83931826292357 0.362756935468711
112  -7.89827189504099 0.339492870012243
113  -7.95260832550494 0.318539192163555
114  -8.01977941458287 0.293336964258901
115  -8.15604608153237  0.24480922103067
116  -8.77378870767882 0.0751038960745513
117  -9.50677921152426 0.184292750113316
118  -9.83495775750562 0.564579226481119
119   -9.9035802572958  1.08134151181391
120  -9.70599288033375  1.57293617823128
121  -9.32947995197074  1.93375140961072
122  -8.44980343435249  2.20538460041218
123  -7.53231077400438  2.16996534304846
124  -6.62542151668652  2.01229490728054
125  -5.71369275846008  1.86800482998071
126   -4.7906567835991  1.81062120077696
127  -3.86508049951065  1.84718927274015
128  -2.88692628825546   1.8942961977125
129  -1.96418745069457  1.89739418997198
130  -1.02177673775742  1.86456744293832
131  -0.0888422297720901  2.48109600658104
132  0.845662388035778  2.49668974506334
133   1.78031598164579  2.50088912015674
134   2.71554668052634  2.47976938084543
135   3.64880583538496   2.4339994492572
136   4.58361585562052  2.40082358349405
137   5.51563053003654  2.44044967549268
138   6.44302562128727  2.56829394804182
139   7.37525052857368  2.72023900854521
140   8.32854966699288  2.76303370493288
141   9.24859356281146   2.5061479037082
142   9.72378782157269  2.12289991402959
143   10.0546535637353  1.56441813432788
144   10.1894070340012 0.901261629548258
145   10.2121190395127 0.222122870303475
146   10.3134494314904 -0.414909854142296
147   10.3646287445094 -1.27931783918236
148   10.2077731475143 -1.65531229001466
149   9.96983288092626 -1.96009686631341
150   9.67676339858764 -2.19414909774403
151    9.3510182796479 -2.36046700871201
152   9.01510247795657 -2.46517791337978
153   8.68470658605647 -2.51935698285729
154   8.36799386617863 -2.53507536306276
155   8.06778302690076 -2.52280602688627
156   7.78383664999324 -2.49067389598354
157   7.51460890404979 -2.44467790197428
158   7.25831751980916 -2.38923834376057
159   7.01336148813352 -2.32768842679905
160   6.77838170027457 -2.26259760727593
161    6.5522322251152 -2.19597187330937
162   6.33394983112738  -2.1293852839281
163   6.12272770964421 -2.06407063168265
164   5.91788809662082 -2.00098306121746
165   5.71885055527047 -1.94084510614542
166   5.52509504174717  -1.8841794339541
167    5.3361216471948 -1.83133473462265
168   5.15141205668286 -1.78250956656232
169   4.97039978288248 -1.73777766756976
170   4.79245535058122 -1.69711594122236
171   4.61688866677134 -1.66043372045522
172   4.44296595485921 -1.62760021594271
173   4.26993580540085 -1.59846701438296
174   4.09705964525644 -1.57288377120308
175   3.92364540007953 -1.55070680541941
176   3.74908623620534 -1.53180118733766
177   3.57290476192609 -1.51603689146045
178    3.3947950506888 -1.50327950567421
179   3.21464586808791 -1.49337710116768
180   3.03252950796656 -1.48614707536092
181   2.84865516022278 -1.48136792923397
182   2.66330283640556 -1.47877921659909
183   2.47676023771787 -1.47808930453874
184   2.28927858801996 -1.47898774998217
185   2.10105201635102  -1.4811584943202
186   1.91221622683559 -1.48429121503807
187   1.72285869465629 -1.48808977673223
188   1.53303329468969  -1.4922779035839
189   1.34277470438393 -1.49660273146005
190   1.15211030708031 -1.50083696729725
191  0.961068901211836 -1.50478023694117
192  0.769686303013548 -1.50826000871617
193  0.578008223071099 -1.51113231237958
194  0.386090889489679 -1.51328235073394
195  0.193999924987785 -1.51462502321415
196  0.00180798413010586 -1.51510534097609
197  -0.190408385178915 -1.51469870211337
198  -0.382572259574836 -1.51341100291136
199  -0.574609897614624 -1.51127857719545
200  -0.766454008279508 -1.50836797464464
201  -0.958046368742317 -1.50477560613325
202  -1.14933938288188 -1.50062729436958
203  -1.34029614255012 -1.49607776355555
204  -1.53088854516181  -1.4913100737119
205  -1.72109301232744  -1.4865349458944
206  -1.91088334535023 -1.48198982677631
207  -2.10022035741195 -1.47793739759228
208  -2.28903840527012 -1.47466304343723
209  -2.47723014366572 -1.47247060091434
210  -2.66463291995583 -1.47167561312686
211    -2.851022831481 -1.47259556443332
212   -3.0361242551077 -1.47553739569264
213  -3.21964143155755 -1.48078404831694
214  -3.40131249017745 -1.48858332907354
215  -3.58097570570032 -1.49914288037653
216  -3.75862803690036 -1.51263341607714
217  -3.93445549480488 -1.52919898940301
218   -4.1088273760351  -1.5489701124963
219  -4.28226367197307 -1.57207520066457
220  -4.45539309732871  -1.5986476717815
221  -4.62891412280283 -1.62882779005117
222  -4.80356184079978 -1.66275873874841
223  -4.98007851320464 -1.70057614273317
224  -5.15918667906327 -1.74239050187833
225  -5.34156732221098 -1.78826311366421
226  -5.52784823628263 -1.83817755523202
227  -5.71860740229793 -1.89200970349288
228  -5.91439287680401 -1.94949877582042
229  -6.11575621234733 -2.01021991179145
230  -6.32329339132106   -2.073556209993
231  -6.53768712095358 -2.13866591498588
232  -6.75974657396919 -2.20443898911814
233  -6.99044371970693 -2.26943607275172
234  -7.23094847413097 -2.33180074446467
235  -7.48266797227542 -2.38913117746281
236  -7.74728811229735 -2.43828445410727
237   -8.0267446007121 -2.47505911786235
238  -8.32286762741936 -2.49369647260674
239  -8.63636904642048 -2.48627986386144
240  -8.96509964746484  -2.4423962013144
241  -9.30170299441997 -2.34971897184881
242  -9.63124021270554 -2.19644601308318
243  -9.93138189271883 -1.97550495705492
244  -10.1794629563128 -1.68362621450941
245   -10.349611129746 -1.32235925554169
246  -10.3380689204251 -0.459186492489317
247  -10.2688803981949  0.18143726884045
248  -10.2854126014142 0.860440096325232
249  -10.1913711959538  1.53099220465036
250  -9.89281908346599  2.11051382980894
251  -9.42614718955277   2.5258467005113
252  -8.51343852047182  2.81388444351053
253  -7.55719659639345  2.78494026952368
254    -6.622909101558    2.628309154222
255  -5.69572958228494  2.48402462221528
256  -4.76344714778239  2.42476690564523
257  -3.82757435044753  2.44524309219408
258  -2.89273495399135  2.48268112585011
259  -1.95551733958387   2.4904411389857
260  -1.02029096230436  2.47705432603535
