// Id               X                Y
  1  -0.0927177025485858  3.44344668289822
  2  0.910282890481013  3.42025552203485
  3   1.93451061096881  3.34132549469386
  4   2.96753495456593  3.20490156036508
  5   3.89179147917707  2.98546020310375
  6   4.75998386289393  2.70121459698919
  7    5.6462151066513  2.47833729529145
  8   6.55258783350328  2.34390236637135
  9   7.46649075536225  2.26083977766062
 10   8.37556013012127  2.12680248911538
 11   9.23621743604704  1.78968542180122
 12    9.6243255868075  1.43250674841127
 13   9.85863383006662  0.94970387292531
 14   9.83494241870792  0.42563705406532
 15   9.53334511058504 0.0256124894609253
 16   8.81039786692506 -0.0886817074556187
 17   8.35754088852435 0.0446767549620381
 18   8.27899821885305 0.0777293841293271
 19   8.21683922815778 0.106036499856387
 20   8.15776574865027 0.134638905004565
 21   8.09528976200565 0.166695569624215
 22   8.02179332760254 0.206686979050762
 23   7.93418670701597  0.25748702279944
 24   7.83276469781596 0.320315297711359
 25   7.71936992172002 0.395274939368083
 26   7.59623634879302 0.481699375484608
 27   7.46547535744408 0.578349412952489
 28   7.32894305218145 0.683515648283636
 29   7.18818863304178 0.795172401948487
 30   7.04423798804511 0.911336614302637
 31   6.89748333374866    1.030360903467
 32   6.74788106334095  1.15092059299404
 33   6.59516607313908  1.27191927578524
 34   6.43896327372415  1.39243723233464
 35   6.27884284360345  1.51170258861264
 36   6.11435299882224  1.62906708080687
 37   5.94504424917261  1.74398183534635
 38   5.77049401276697  1.85597196448745
 39   5.59033902482518  1.96460992342164
 40   5.40431937401842  2.06949001324155
 41   5.21232976573191   2.1702101173578
 42   5.01446438397012  2.26636810591229
 43   4.81103967462582  2.35757586470735
 44   4.60258722546195  2.44348600316181
 45   4.38982015721111  2.52382121330164
 46    4.1735835546851  2.59839691785233
 47   3.95480049160504  2.66713222634233
 48   3.73442220923371  2.73004894086676
 49   3.51338651548329  2.78726146766239
 50   3.29258385999624  2.83896170567874
 51   3.07282629083726  2.88540280254469
 52   2.85481168695375  2.92688453761498
 53   2.63907817919957  2.96374103011021
 54   2.42595653275895  2.99632879496345
 55   2.21554510078281  3.02501205964202
 56    2.0077299865476  3.05014514027037
 57   1.80224599025492  3.07205598266658
 58   1.59875095330841   3.0910354022144
 59   1.39688797953167  3.10733323387068
 60   1.19632509760157  3.12115960541427
 61  0.996773878469525  3.13268871505519
 62  0.797993248769661  3.14206307719795
 63  0.599784854140637  3.14939711969748
 64  0.401984697485275  3.15477974777116
 65  0.204453951203577  3.15827592443633
 66  0.00707037738160093  3.15992750909922
 67  -0.190279225998369     3.15975362845
 68  -0.387705767947691  3.15775079467023
 69  -0.585324344087801  3.15389288011283
 70  -0.783261085460403  3.14813093368353
 71  -0.981660861171256  3.14039270306253
 72  -1.18069591514549  3.13058163066783
 73  -1.38057479502492  3.11857505180788
 74  -1.58154980748622  3.10422139113625
 75   -1.7839196677818  3.08733640124066
 76  -1.98802218389356  3.06769899653436
 77  -2.19421050503854  3.04504803183094
 78  -2.40280756886641  3.01908226052683
 79  -2.61403995052314  2.98946600323781
 80  -2.82796581886273  2.95584164254356
 81   -3.0444246678165  2.91784669914833
 82  -3.26303134116251  2.87513066674581
 83  -3.48320992356004  2.82736855092131
 84  -3.70424192422635  2.77427240865961
 85  -3.92530857568466  2.71560388270471
 86  -4.14552409625584  2.65118893989954
 87  -4.36396623204821  2.58093353006337
 88  -4.57971078775896  2.50483722388304
 89  -4.79187350445905  2.42300113459127
 90  -4.99965848164332  2.33562665149711
 91  -5.20240811796212  2.24300312220477
 92  -5.39964588282521   2.1454858638902
 93  -5.59110161314694  2.04347009492179
 94  -5.77671150088271  1.93736949345623
 95   -5.9565922713558  1.82760744087522
 96  -6.13099821256139  1.71462389907764
 97   -6.3002744187985   1.5988945586461
 98  -6.46481628222876  1.48095599218338
 99  -6.62503733837566  1.36143199997996
100  -6.78134094748065   1.2410592955387
101  -6.93408768127816  1.12071293653732
102  -7.08354576299899  1.00143503901013
103  -7.22979418017705 0.884482958603945
104  -7.37251676877546 0.771432271137565
105  -7.51075151477447  0.66425527861302
106  -7.64296067987735 0.565074245486903
107  -7.76732772768755 0.475733997382325
108  -7.88185133369717 0.397605683022857
109  -7.98444721320817 0.331492283767637
110   -8.0734166437521 0.277432315216834
111  -8.14855301887064 0.234310464495894
112   -8.2129515219534 0.199283093505775
113  -8.27415630402097 0.167698294350582
114  -8.33857957654073 0.136295059434515
115  -8.42055662389447 0.0991309645349792
116  -8.86885373075934 -0.0499002547180251
117  -9.59697511934793 0.0285378101583418
118  -9.92144677814796 0.410084436274081
119  -9.97673039417002 0.931228817556894
120  -9.76910149365417  1.42660630599982
121  -9.39640574322762  1.80132013993132
122  -8.54217546177648  2.16260530490541
123  -7.62979448507387  2.30598174689381
124  -6.70848857104293  2.38769645474279
125  -5.79020714129109  2.51494154623942
126  -4.88571036081563  2.72935674199676
127  -3.98975998588847  3.00859879003714
128  -3.06368312436807  3.21722791407547
129  -2.12218809539263  3.33627435706408
130  -1.09120003595841   3.3898772811661
131  -0.0917607516573992  4.03273310093146
132  0.875963717575221  4.01299965068816
133   1.84053662727915  3.93346944488399
134   2.80324639877898  3.79011991523659
135   3.78148754662929  3.57636501388315
136   4.74424748727074  3.31493691690194
137    5.6712725754148  3.09462427572478
138   6.60451165630229   2.9577795740283
139   7.54505003719973  2.87166719498093
140   8.48394062500773  2.73020948374997
141   9.36443205602784  2.36741507515108
142   9.80084413068946  1.97128360885139
143   10.1213661606222  1.40888217782759
144    10.259334579583 0.745793525621357
145   10.2879161719797 0.0637650273508019
146   10.3936150852942 -0.581273253286511
147   10.4932722041886 -1.62099561427138
148   10.3058080402241 -2.01075023046615
149   10.0410850261557  -2.3020049467498
150   9.72817451256366 -2.51009600155844
151   9.38788443427108 -2.64445708733471
152   9.04008934265785 -2.71409032477935
153   8.69905177789304 -2.73059602052849
154   8.37234996936994  -2.7057923078163
155   8.06286340273904 -2.64983091297023
156   7.77087629940825 -2.57077086148469
157   7.49538378277591  -2.4748213060213
158   7.23472005506159 -2.36668840783912
159   6.98691202004264 -2.24989399436932
160   6.75010571472473 -2.12716791195887
161   6.52283638484393 -2.00080018431006
162   6.30394403343211 -1.87276657246963
163     6.092440269357 -1.74474974278544
164   5.88745847220641 -1.61816425616169
165   5.68824484795826 -1.49418937407552
166   5.49415894890301 -1.37380040018896
167   5.30467228211549 -1.25779414533849
168   5.11935871691518 -1.14680583999855
169   4.93787144429616 -1.04131609858352
170   4.75990410498243 -0.941649560151828
171   4.58514089754729 -0.847971653920788
172   4.41320867705193 -0.760293096003877
173   4.24364573496123 -0.678489014402195
174   4.07589480784839 -0.602332154768171
175   3.90931800631911 -0.531533238221407
176   3.74322538637073 -0.465779927769004
177   3.57690814574944 -0.404768126808504
178   3.40966985392218 -0.348222851888638
179   3.24085262031703 -0.295908896998955
180   3.06985876347813 -0.247633374171483
181   2.89617217157076 -0.203243015005676
182    2.7193861136643 -0.162618827761549
183   2.53924179092502 -0.125669037860771
184   2.35566934764994 -0.0923186818622422
185    2.1688067717309 -0.0624937637820077
186    1.9789746403573 -0.0361022430234279
187   1.78661178807146 -0.013019143668941
188   1.59219950172291 0.00691799145159102
189   1.39619957083321 0.0239028653946296
190     1.199016298321 0.0381473687688847
191   1.00098062799631  0.04986640486898
192  0.802349836693043 0.0592639111383135
193  0.603316149400502 0.0665216482436874
194  0.404019308242688 0.0717910598331127
195  0.204560016581191 0.0751878290793047
196  0.00501271828931105 0.0767885232389573
197  -0.194562742381254 0.0766287453138761
198  -0.394110346948852 0.0747023718852505
199  -0.593567415282245 0.0709616724340429
200  -0.792853710771851 0.0653183397099219
201  -0.991859607657794 0.0576456918510225
202  -1.19043323357954 0.0477825113902736
203  -1.38836728134896 0.0355391181699665
204  -1.58538737856558 0.0207062442485527
205  -1.78114554206375 0.00306694505008652
206   -1.9752241313962 -0.0175890377627153
207  -2.16715706537547 -0.0414504530929132
208  -2.35647398538906 -0.0686729785265296
209  -2.54276650283803 -0.0993756144409322
210  -2.72576214678103 -0.133648044375307
211  -2.90537845533823 -0.171566850706375
212  -3.08173434468859 -0.213213550587299
213  -3.25512249782468 -0.258688333171654
214  -3.42596788263198 -0.308118838213211
215  -3.59479268723357 -0.361666292011029
216  -3.76219139059329 -0.419529928917135
217  -3.92881042723011 -0.481948253104316
218  -4.09532649468804 -0.549194516035087
219  -4.26242059836588 -0.62156386842119
220  -4.43074843395617 -0.69935071588482
221  -4.60091102160831 -0.782816835038039
222  -4.77343231462727 -0.872153660683493
223  -4.94875175486144 -0.96744502770653
224   -5.1272376940618 -1.06863776935791
225   -5.3092213477174 -1.17552503825621
226  -5.49504290731594 -1.28774128003723
227  -5.68509716716318 -1.40476214266893
228  -5.87986888744993  -1.5259013067272
229  -6.07995508550598 -1.65029920775328
230   -6.2860771375613 -1.77690250731336
231  -6.49908853010915 -1.90443568601321
232  -6.71998832525855 -2.03136811148206
233  -6.94996828367503 -2.15588563034989
234  -7.19055231344549 -2.27587567336243
235  -7.44375266024089 -2.38883751401984
236  -7.71185518010013 -2.49152348940768
237  -7.99691859636192 -2.57946341763323
238  -8.30038779389276 -2.64660069097513
239  -8.62251254799507 -2.68492610324912
240  -8.96109908719228 -2.68417591689899
241  -9.30941497876197 -2.63213147031289
242  -9.65408452921803  -2.5163639057073
243   -9.9759361604986 -2.32669490539141
244    -10.25495636365 -2.05242199460344
245  -10.4630815429955 -1.67696157740257
246  -10.4209899265181 -0.630157389737759
247   -10.352837910761 0.0201912969110582
248  -10.3654075167947 0.702832892311505
249  -10.2663156373909  1.37327770824995
250  -9.97497772200383  1.95239214876142
251  -9.54328581784542  2.37640275637033
252  -8.66948492303536  2.76200380184841
253  -7.72804941580262  2.91372174406207
254  -6.78335711305921  2.99888445925817
255  -5.84550658045345  3.12872535198762
256  -4.91445319464145  3.34156390609769
257   -3.9574108646383   3.5963418848911
258  -2.97806440787381  3.80275979436362
259  -2.01139725358773  3.92907648540615
260  -1.05311917479867  3.99842600451707
