// Id               X                Y
  1  -1.57922996448535   16.508417947586
  2  -0.80260605587977  17.1163684921735
  3  0.298340783908598  17.1631182677579
  4   1.35598374445004  16.9303873834443
  5   2.34777658241534  16.4909102019573
  6   3.23104947286579  15.8849824016061
  7   4.06457159247947  15.2151065342213
  8   4.87686075286738  14.5122704203493
  9   5.69456639464338  13.8145771247845
 10   6.53382068847547  13.1394092484941
 11   7.40243081859776  12.4991751779847
 12   7.95759583527344  12.1094369485916
 13   8.51059546499871   11.715936842871
 14   9.04313052874192  11.2958854801401
 15   9.52368972228542  10.8183377558252
 16   9.93727764629352  10.1942155513679
 17    10.140636710002  9.87046329959593
 18   10.3342157544732  9.53497236374898
 19   10.5071839086955  9.18486075362028
 20   10.6460529174081  8.81855529674709
 21   10.7358437015924  8.43912126133928
 22   10.7632112342675  8.05410733801908
 23   10.7183415467292  7.67556791336657
 24   10.5964546806802  7.31948713203326
 25    10.399038371614  7.00403819869766
 26   10.1341971322028  6.74696573964357
 27    9.8157426792571  6.56293701046927
 28   9.46132420195783  6.46163823518989
 29   9.09016759300815  6.44684031942904
 30   8.72074700119445  6.51634588142946
 31   8.36862009522821  6.66283005599757
 32   8.04487587479157  6.87551070250251
 33   7.75560807751822  7.14219944587076
 34   7.50239669847272  7.45110170465031
 35   7.28339106450994  7.79196232732455
 36   7.09452201291736  8.15651969756698
 37   6.93053429390197  8.53846025471315
 38    6.7857274952706  8.93311057420161
 39    6.6544219302081  9.33704690908899
 40   6.53121763180644  9.74772399259485
 41   6.41111895222219  10.1631653445967
 42   6.28958202201357  10.5817233385002
 43   6.16252357880505  11.0019023383746
 44   6.02631406484078  11.4222339172853
 45    5.8777669508914  11.8411935255582
 46   5.71412940895327  12.2571497501036
 47   5.53307560902257  12.6683391119657
 48   5.33270200686546  13.0728607769659
 49   5.11152323180447    13.46868658998
 50   4.86846705407512  13.8536825871041
 51   4.60286709608484  14.2256386940421
 52   4.31445227626122  14.5823037593719
 53   4.00333234631214  14.9214234486872
 54    3.6699792544432  15.2407788729418
 55   3.31520441047496  15.5382241620739
 56   2.94013222480008  15.8117215336214
 57   2.54617052746739  16.0593727473893
 58   2.13497863668203  16.2794461759584
 59   1.70843393340928  16.4703990465224
 60   1.26859781234269  16.6308947092988
 61  0.817681826803955  16.7598150487436
 62  0.358014738422882  16.8562683654213
 63  -0.107988963020187  16.9195932117084
 64  -0.57785867191877  16.9493587609297
 65  -1.04909518757127  16.9453623286648
 66  -1.51919608539059  16.9076246521175
 67  -1.98567902678745  16.8363834766559
 68  -2.44610321378275  16.7320859077616
 69  -2.89808927859169  16.5953798723632
 70  -3.33933794646657  16.4271049066227
 71  -3.76764782211413  16.2282823579655
 72   -4.1809326283341  16.0001049668239
 73  -4.57723817429278  15.7439256864168
 74  -4.95475925568022  15.4612455138329
 75  -5.31185659678335  15.1537000482892
 76  -5.64707384317678  14.8230444667983
 77  -5.95915451208865  14.4711366161434
 78  -6.24705871496815  14.0999179638945
 79   -6.5099793930781  13.7113922292602
 80  -6.74735776156071  13.3076016241762
 81  -6.95889764901975  12.8906007718982
 82   -7.1445784552412  12.4624285292501
 83  -7.30466653391738  12.0250781143686
 84  -7.43972494207959   11.580466130636
 85    -7.550621682852  11.1304012794057
 86  -7.63853680146326  10.6765537744747
 87  -7.70496897599713  10.2204267225213
 88  -7.75174257879967  9.76333103618784
 89  -7.78101658401237  9.30636582851361
 90  -7.79529717974429  8.85040673742684
 91  -7.79745652291014  8.39610530442643
 92  -7.79076072679694  7.94390348378794
 93  -7.77891076846641  7.49406878437283
 94  -7.76610019032767  7.04675781947479
 95  -7.75709245530093  6.60211980028337
 96    -7.757317039456  6.16045765244488
 97  -7.77297402325714  5.72247374497739
 98   -7.8111175465347  5.28963905302033
 99  -7.87965268866482  4.86473369755813
100  -7.98712213743373  4.45259768510522
101  -8.14208169204834  4.06107102800387
102  -8.35180224632053  3.70194551894806
103  -8.62009161249314  3.39146981400499
104  -8.94437263327661  3.14963657390343
105  -9.31287722759396  2.99746938327404
106  -9.70357074014601  2.95229019845955
107  -10.0862775960686   3.0224155986443
108  -10.4279278166347  3.20366217760036
109  -10.6991153075817  3.47926904984817
110  -10.8798021214846  3.82324377466707
111  -10.9625513997687   4.2060422692281
112  -10.9524572687201  4.60067773572567
113  -10.8642152696477  4.98716890838984
114  -10.7174012727441  5.35463819962257
115  -10.5306906273404    5.701443079692
116  -10.3192701639115  6.03037190188151
117  -9.87061560750138  6.63251646962765
118  -9.34718677561319     7.07802482702
119  -8.77401899645341  7.45813301158052
120  -8.18530805248583  7.81297223491261
121    -7.597428028624  8.17329935955115
122  -6.72427574793488  8.79696835980423
123  -5.91786695532201  9.50754313979334
124  -5.19399208579933  10.3006942302246
125  -4.55929569563755  11.1658084426015
126  -4.01028773081481  12.0856250742902
127  -3.52876924111742  13.0380056481216
128  -3.08180024875831  13.9972319421595
129  -2.63107579014673  14.9279413639552
130  -2.15579355703105  15.7706973031968
131   -1.5145743745545  17.1158845922079
132  -0.520752511177543  17.5894230580161
133  0.555545130138752  17.6912778003926
134   1.60183409084858  17.4712611405365
135   2.57193942804297  17.0277084407415
136   3.46323919312253  16.4403350731963
137   4.29672040148939  15.7749110496131
138   5.10256139087897   15.079609512564
139   5.90569610233803  14.3884519778647
140   6.71951810308696  13.7207474686421
141   7.54710618076216  13.0788088140645
142   8.06267257436602  12.6917658042089
143   8.58218687735717  12.3089692170758
144   9.10192633997121  11.9308114805474
145   9.59721834466482  11.5736528412679
146   9.98155015045245  11.2974751110062
147   10.6281787816879  10.7407348985336
148    11.094359924712   10.197717822061
149   11.4284907729213  9.65556114998637
150   11.6566383066316  9.10314120900448
151   11.7866218894812  8.53256065360365
152   11.8127046098418  7.94732559783845
153   11.7246839105952  7.36335560129652
154     11.51574693935  6.80617550403005
155    11.187712648447  6.30651952550037
156   10.7534791995817  5.89514928558371
157   10.2366639170386  5.59759168219608
158    9.6685832035499   5.4297431941436
159   9.08329381076407  5.39552324570294
160   8.51224742297609  5.48729932026302
161   7.98022707699646  5.68864940023946
162   7.50338226830036  5.97821220749677
163   7.08922744423174  6.33343015484829
164   6.73801175289502  6.73345422191137
165   6.44477882621855  7.16090898411968
166   6.20150616190411  7.60254778796809
167   5.99889507918141  8.04906358106357
168    5.8276211337663  8.49441650658772
169   5.67905804860558  8.93499937174061
170   5.54559877145577  9.36885205384962
171   5.42072102251205  9.79502429206657
172   5.29891890675128   10.213108048293
173   5.17558173110314  10.6229196687482
174   5.04686563696242  11.0242980114365
175    4.9095792420528   11.416985298228
176   4.76109029093325  11.8005638786565
177   4.59925321604119  12.1744294805749
178   4.42235457129425  12.5377877941155
179   4.22907248682019   12.889665854648
180   4.01844642860303  13.2289328022429
181   3.78985403390333  13.5543265569466
182    3.5429923660398  13.8644841210303
183   3.27786148782846     14.1579738905
184   2.99474875930288  14.4333287353919
185   2.69421271530683  14.6890788283756
186    2.3770657719504   14.923783348217
187   2.04435534806994  15.1360603069165
188     1.697343268304  15.3246138714124
189    1.3374835374498  15.4882586822325
190  0.966398741192357  15.6259408127033
191   0.58585543730002  15.7367551580331
192   0.19773895724286  15.8199591855931
193  -0.195971953349339  15.8749831069053
194  -0.59323025776498  15.9014366397617
195  -0.991945177166853  15.8991126090681
196  -1.39000590572598  15.8679876837058
197  -1.78530431691761  15.8082205634249
198  -2.17575656708224   15.720147917032
199  -2.55932357146645  15.6042783360719
200  -2.93403037910893  15.4612845137723
201  -3.29798450296944  15.2919937951789
202  -3.64939327026896  15.0973771791579
203  -3.98658024735648   14.878536793625
204  -4.30800076794953  14.6366918179698
205  -4.61225655936951  14.3731627954367
206  -4.89810942555915  14.0893542654366
207  -5.16449391592255  13.7867356515858
208  -5.41052889315545  13.4668203639645
209  -5.63552791878513  13.1311431102441
210  -5.83900840931994  12.7812354552912
211  -6.02069958568238  12.4185997170501
212  -6.18054935104952  12.0446813319197
213  -6.31873039512078  11.6608398594346
214   -6.4356460454148  11.2683188184664
215  -6.53193668030589   10.868214552363
216  -6.60848790048763  10.4614443114211
217  -6.66644214980104    10.04871373464
218  -6.70721612182404  9.63048395425722
219  -6.73252714893136  9.20693873630571
220  -6.74443294579479  8.77795260644247
221  -6.74539070870954   8.3430621552376
222  -6.73834379777387  7.90144529462279
223   -6.7268470543451  7.45191815413894
224  -6.71524472543622  6.99296806036468
225  -6.70891617280494  6.52285557180842
226  -6.71459952702137  6.03984060577693
227  -6.74078310177948  5.54261687096787
228  -6.79810390064488  5.03106784026304
229  -6.89959489426344  4.50746415065412
230  -7.06047392373912  3.97816063645204
231   -7.2970098164923  3.45565422246002
232  -7.62396709402206  2.96048553716846
233  -8.05043263401123  2.52198903414928
234  -8.57459999210616  2.17663980227612
235   -9.1790894944002  1.96315404881779
236  -9.82897289557692  1.91467049177685
237  -10.4743791563125  2.04978977741993
238  -11.0583616170623  2.36547678001803
239  -11.5284686356263  2.83530554497607
240  -11.8477760865384  3.41503292539359
241   -12.000346350862  4.05408864487347
242  -11.9881304674245   4.7087867206003
243   -11.819516801948  5.35212990354899
244  -11.4939652694332   5.9742553878157
245  -10.9944000265939  6.57020306974911
246   -10.286515122943  7.13624969128139
247  -9.88661279318609  7.39001517976111
248  -9.38621671442259  7.70161530652718
249  -8.85059760385781  8.03609471022099
250  -8.32009378161764  8.37732268864659
251  -7.80555623063995  8.72728239066761
252  -6.98645840680671  9.34543523274285
253  -6.22329222573402  10.0355689614858
254  -5.53023242680177  10.8098067580086
255  -4.91816525062377  11.6605138256959
256  -4.38290375216302  12.5719251419959
257  -3.90359870972453  13.5246728450697
258  -3.44133094161278  14.4971941340144
259  -2.93680638927397  15.4609403089644
260  -2.31296498551384  16.3626136248449
