// Id               X                Y
  1  -0.521051040518311  9.08953214535783
  2  0.619220073921493  9.02578227614625
  3   1.68721204641147    8.673972658661
  4   2.71915537100803  8.23025333470496
  5   3.70769453310179  7.70886801480042
  6   4.66133623216427  7.09390619285705
  7   5.50212443629996  6.38452931091293
  8   6.16914995864472  5.60900678988996
  9   6.80536556739584  4.75404430639424
 10   7.47015493381702  3.92145099737603
 11   8.17719201541704  3.12156740551946
 12   8.62854428570733  2.63268236574364
 13   9.06218802764749  2.12308713861025
 14   9.41282359554932  1.54421631642412
 15   9.48112477406959 0.898295485670842
 16   9.00759820765463 0.351175764725117
 17   8.42064480017416  0.27465763485931
 18   8.34767636979263  0.28621748373969
 19   8.27928323488105 0.301389937404382
 20   8.20986482385796 0.321329458952081
 21   8.13601844869195 0.347690233874297
 22    8.0522491362446 0.384501931443976
 23   7.95649735892258 0.436268026173065
 24   7.85045605353475 0.507045285175521
 25   7.73801256212232 0.599926580571744
 26   7.62389141240742 0.716856654443341
 27   7.51275132336391 0.858585035524458
 28   7.40862100990766  1.02471332528562
 29   7.31452528592405  1.21378135073314
 30   7.23222325867645  1.42338241172819
 31   7.16205303192603  1.65034962915898
 32   7.10292816864121  1.89110270827963
 33   7.05253412640575  2.14221120623172
 34   7.00771187364384  2.40097109099059
 35   6.96491818991065  2.66550407033402
 36   6.92062073439613  2.93427184583501
 37   6.87157716452797  3.20558266170339
 38   6.81501061492884  3.47757356453677
 39   6.74863685877828  3.74867220771389
 40   6.67053947954694  4.01801093786721
 41   6.57902328619132  4.28533565539874
 42    6.4725321026078  4.55065603741082
 43   6.34961960037344  4.81397593212242
 44   6.20895127239004  5.07515975766931
 45   6.04933411347056  5.33387728241955
 46   5.86977950035355  5.58958183937435
 47   5.66960689278999   5.8415027606485
 48   5.44859413023276  6.08864753979079
 49   5.20715232771262  6.32983511418661
 50   4.94641524276805  6.56382994340653
 51   4.66811903910556  6.78958653579533
 52   4.37437404733335  7.00642645533419
 53   4.06756135903875  7.21399490876111
 54   3.75058518779985  7.41194985816535
 55   3.42803702908515  7.59919085418605
 56   3.10932023749498  7.77227752450142
 57   2.78525733588339   7.9374755363314
 58   2.45010161415789   8.0975503734538
 59   2.11129421000612  8.24810897127721
 60   1.77262469529605  8.38635626950289
 61   1.43604605411233  8.50991277839655
 62   1.10248610204296  8.61637497157916
 63  0.776524864644508  8.70214881391279
 64  0.475776371783782  8.76229811283273
 65  0.211431466003759  8.79759614689245
 66  -0.0133436960773861  8.81290849502754
 67  -0.215894428467771  8.81415814188747
 68  -0.435573389024487  8.80196724643048
 69  -0.69430476605547  8.77072988669926
 70  -0.990943546440348  8.71499181670263
 71  -1.31489100255598  8.63316956349789
 72  -1.64828518493841  8.52961291057564
 73  -1.98570981677225  8.40794847912766
 74  -2.32632050833961  8.27052958071397
 75  -2.66851562017248  8.11962786121453
 76  -3.00970500797972  7.95751825394704
 77   -3.3456809312038  7.78686751579606
 78  -3.66957182814656  7.61158934663005
 79  -3.98926194836199  7.42711633944314
 80  -4.30922045193758  7.22926448335551
 81  -4.62157532894533  7.02081458278065
 82  -4.92213938936721  6.80277632470907
 83  -5.20819371071829  6.57557331149791
 84  -5.47752951267392  6.33971345715723
 85  -5.72826184593041  6.09603362280247
 86  -5.95893928855781  5.84568963296447
 87  -6.16872198639765  5.58996807100637
 88  -6.35744562405762  5.33006638410125
 89  -6.52552291968173  5.06697370487948
 90  -6.67378437122688  4.80144212298457
 91  -6.80334257774953  4.53399435597356
 92  -6.91550062619401   4.2649485037719
 93   -7.0117014902803  3.99446519671499
 94  -7.09351300911606  3.72263826884083
 95  -7.16264643600453  3.44966260883656
 96  -7.22101334111261  3.17608439858079
 97  -7.27082419691368  2.90300838084303
 98  -7.31469331709731  2.63202439546474
 99  -7.35566096033971  2.36487541106594
100  -7.39707488746316  2.10327869316344
101  -7.44234788260072  1.84914804758012
102  -7.49460932635931  1.60496186094036
103  -7.55628190164436  1.37381148626333
104    -7.628681446393  1.15903994396567
105  -7.71175163243551 0.963769391049813
106  -7.80398153636284 0.790539447068439
107   -7.9024959975951 0.641067148792772
108  -8.00331118044384  0.51606303081932
109  -8.10181265199395 0.415053312115573
110  -8.19361665785131 0.336188841092097
111  -8.27603661304927 0.276052099723092
112  -8.35005065940599 0.229622185726034
113  -8.42092618112675 0.191232905104894
114  -8.49283583152397 0.157870186206499
115  -8.57144139270664 0.127387451282488
116  -9.18227872022551 0.0715569870895994
117  -9.77245082314533 0.501723816037886
118   -9.8590468297803  1.01864673554167
119  -9.64316671715471  1.61531454811946
120  -9.24681164633572  2.16274730076854
121  -8.79924748978149  2.66762200406749
122  -8.08054701426699  3.46461636793002
123  -7.40975041934101  4.28099878767323
124  -6.82522139504207  5.08042078139026
125  -6.25735498471922  5.87657615115857
126  -5.49784973312413  6.65367189460943
127  -4.59468187697071  7.32152376374539
128  -3.62055684520829  7.90755814810676
129  -2.61050533872713   8.4139657745839
130  -1.57864655245306  8.79683773532845
131  -0.265985221384558  9.60060726596974
132  0.858196825271994  9.54560818878359
133    1.9272106394068  9.23284908451578
134   2.94491887331457  8.78647719250915
135   3.92015819004149  8.25708945400055
136   4.84498770778333  7.64556561367884
137   5.69667376365771   6.9303243933629
138   6.46217641211655  6.11502014324396
139   7.16904569652963  5.24982872891763
140    7.8721550463632  4.38923230891886
141   8.58857226931346  3.54614466575447
142   9.03097399859263  2.99959737622534
143   9.44632042577014  2.43408460983821
144   9.81897093034218  1.83960853931942
145   10.1566560132181  1.22885635499064
146   10.4890794403751 0.622137117281574
147   10.9577369278108 -0.692417762169115
148   10.8493311910167 -1.18915342666593
149   10.6345413063863 -1.58678893789039
150   10.3486441145417 -1.89884807812911
151   10.0152879341908 -2.13120041935912
152   9.65674373445193 -2.28765339032875
153   9.29098765803305 -2.37525012562389
154   8.92851062744929   -2.402960266702
155   8.57392827791409 -2.37860946089282
156   8.22896594703919  -2.3076840997272
157   7.89464023857548 -2.19365611540333
158   7.57238071479893  -2.0388909099466
159   7.26438149540529 -1.84563246418178
160   6.97344502427564 -1.61684443802049
161   6.70249766781428 -1.35676594944692
162   6.45395961452389 -1.07107250636025
163   6.22919884496283 -0.766635150618853
164    6.0282449565069 -0.450971728525373
165   5.84976277713848 -0.131428704396187
166   5.69123545049423 0.185806054254739
167      5.54935273362 0.496446658846898
168   5.42051632501073 0.798204534714524
169   5.30133488267595  1.09016589275031
170   5.18895008183973  1.37194385453691
171   5.08109783884497  1.64324575053069
172   4.97601819321361  1.90384482178655
173   4.87234630097221  2.15365099410026
174   4.76901991901319  2.39275267617095
175   4.66519446262094  2.62143426316643
176   4.56015378907436  2.84019413441532
177   4.45320667034707  3.04978004196462
178   4.34355637452319  3.25125378065212
179   4.23014178312327  3.44606657982433
180   4.11151037415674  3.63603007823416
181   3.98581540866078  3.82307462948198
182   3.85089122705416  4.00894298478611
183    3.7042567840849  4.19504456781393
184   3.54284053676842  4.38263295166831
185     3.361833202222  4.57369026953023
186   3.15170926527368  4.77271335345281
187    2.9226849161673  4.96494568821716
188    2.6828391800555  5.14183464373337
189   2.42736940057028  5.30585476595156
190    2.1558390478594  5.45556407138848
191   1.87020892138742  5.58847142905728
192   1.57353164930981   5.7024457138626
193   1.26484598492928  5.79742855359344
194  0.929116661082805  5.87592300714046
195  0.552757696144225  5.93616332450433
196  0.122541080977156  5.97289328481308
197  -0.345389655314124  5.97768910468808
198  -0.785115826253324  5.94920978749665
199   -1.1710407510948  5.89537412895221
200  -1.51497820975807  5.82200396442067
201  -1.83112987705107  5.73116805427867
202  -2.13516855912719  5.62051652698469
203  -2.42889023599849  5.48967508511561
204  -2.70897931824582  5.34058599180455
205  -2.97274713965994  5.17594594602325
206  -3.21892382727139  4.99845305911925
207  -3.44869431822134   4.8093249468731
208  -3.66665805480391  4.60611062234136
209  -3.86292761619392   4.4005323803197
210  -4.03258940559586  4.20321342029229
211  -4.18396880196575  4.00979345030734
212  -4.32159899801123  3.81798959471608
213  -4.44841496328056  3.62626697781094
214  -4.56675209282599  3.43301796204207
215  -4.67859806648792  3.23640940491003
216   -4.7856080590513  3.03452895369165
217   -4.8890772719576  2.82564301145091
218  -4.98998186051291    2.608376650751
219  -5.08910494753346  2.38172616300935
220  -5.18718166549578  2.14499177546788
221  -5.28502284819165  1.89771687235793
222  -5.38361780613689  1.63965140482622
223  -5.48422564273685  1.37073150164675
224  -5.58846320758269  1.09106340203058
225  -5.69839533399481 0.800906527036725
226  -5.81661798620385 0.500698722869183
227  -5.94627755613045  0.19127261457718
228  -6.09092220811153 -0.12559809378187
229  -6.25414359520883 -0.446544728687597
230  -6.43910495850559 -0.766356004323593
231  -6.64810123427264 -1.07836188105929
232  -6.88226322362007 -1.37521740759201
233  -7.14146432760767 -1.64970691100389
234  -7.42448279840324  -1.8953545172022
235  -7.72942584037719 -2.10673334968558
236   -8.0542730054376 -2.27935841970509
237  -8.39728745485249 -2.40912507394464
238  -8.75700772476686 -2.49137630184556
239  -9.13146642071227 -2.51980888150055
240   -9.5162000153454 -2.48571831106846
241  -9.90099607295321 -2.37867251435845
242  -10.2673919190838 -2.18966496625416
243  -10.5916287302927 -1.91379648704397
244  -10.8497175164085 -1.54563224376819
245  -11.0089560480661 -1.07285465082127
246  -10.7287322004857 0.190129635670854
247  -10.4601510641606 0.818054975948786
248  -10.1721817455205  1.45722108694728
249  -9.84340747923395  2.07735385003427
250  -9.47378819022083   2.6484727758004
251  -9.07155156990748  3.18438095945348
252  -8.38355259216979  4.00427374165425
253  -7.68644193214946  4.83464217386818
254  -6.98078682307684  5.67794815683083
255  -6.22625602639739  6.49666381995981
256  -5.39142741803523  7.25804935761523
257  -4.47613123538243  7.92654570976598
258  -3.49732309133556   8.5087783997775
259  -2.46691083102037  9.00144224264369
260  -1.38888820809002  9.37989899109181
