// Id               X                Y
  1  -0.0985846728434888  2.50581111077465
  2   0.81488702501094  2.49767280370598
  3   1.73062728961339  2.40795399122143
  4   2.62186475037259  2.25030492051912
  5   3.51814235011058  2.11923452387708
  6   4.41967451602945  2.03167546030108
  7     5.322477298833  1.98924167253814
  8   6.22240664678882  1.97281035743818
  9   7.11648654729533  1.94250835946194
 10   8.00105344138873  1.85453977977827
 11   8.87052364310235  1.65435428112115
 12   9.31282820751322  1.43228565708239
 13   9.69918392736782   1.0860548427471
 14   9.91842398428443 0.557638370978174
 15   9.76335896637705 0.0452265502747155
 16    9.0186451634881 -0.147331040239897
 17   8.62469890830326 -0.0955688488617165
 18   8.44682036065119 -0.0593720919581854
 19   8.34390232185873 -0.0352310166692384
 20   8.28905266351033 -0.021465323088245
 21   8.26146738566617 -0.0143097046417877
 22     8.209775321619 -0.000497953935259351
 23   8.11698916921233 0.0255936185139086
 24    8.0034985107574 0.0596468842762257
 25    7.8745028056378 0.101012818101093
 26   7.73348967181029  0.14919383922763
 27    7.5830949408555 0.203634454690278
 28   7.42534442933906 0.263697506422688
 29   7.26178292476653 0.328682156441759
 30   7.09357038847114 0.397852519737335
 31   6.92156252350101 0.470465958517128
 32    6.7463794902268 0.545796680072832
 33   6.56846372231037 0.623153293300566
 34   6.38812750572346 0.701890485824948
 35   6.20559120398733 0.781415683776001
 36   6.02101321172893 0.861191793329796
 37   5.83451279620922 0.940737103654439
 38   5.64618696474856  1.01962328395404
 39   5.45612241775182  1.09747221245212
 40   5.26440354486416  1.17395217987517
 41   5.07111731327499  1.24877384026146
 42   4.87635578910179  1.32168614881376
 43   4.68021692669649  1.39247243094642
 44   4.48280415700678  1.46094666341912
 45   4.28422520602541  1.52695000953492
 46     4.084590480184  1.59034762771451
 47   3.88401127015444  1.65102575965935
 48   3.68259795047666  1.70888909613274
 49   3.48045829141567  1.76385841240256
 50   3.27769595197912  1.81586846036789
 51   3.07440918849864  1.86486610003384
 52   2.87068979011188  1.91080864946377
 53   2.66662223883056  1.95366242992323
 54   2.46228308533219  1.99340148187576
 55   2.25774052984003  2.03000642790291
 56   2.05305419831781  2.06346346044192
 57   1.84827510588748   2.0937634352533
 58   1.64344580051255  2.12090105540965
 59   1.43860067973171  2.14487413490486
 60   1.23376647128052  2.16568293525358
 61   1.02896286501793  2.18332957223888
 62   0.82420327928936  2.19781749292056
 63  0.619495740532961  2.20915102492906
 64  0.414843851397401  2.21733500090857
 65   0.21024782051589  2.22237446086873
 66  0.0057055266675431  2.22427443441436
 67  -0.19878640872119  2.22303980366041
 68  -0.403231564307745  2.21867524640611
 69  -0.607632697199261  2.21118525807661
 70  -0.811990774054823  2.20057425018871
 71  -1.01630406903951  2.18684672272123
 72   -1.2205673403144  2.17000750777341
 73   -1.4247710949101  2.15006208225221
 74  -1.62890095048154  2.12701694802188
 75  -1.83293710141542  2.10088007896947
 76  -2.03685389591819  2.07166143579145
 77  -2.24061952998331  2.03937355098912
 78  -2.44419586353224  2.00403218854699
 79  -2.64753836358082  1.96565708499991
 80  -2.85059617900844  1.92427278097029
 81  -3.05331235128594  1.87990955464786
 82  -3.25562416505673  1.83260447094852
 83  -3.45746364124071   1.7824025620902
 84  -3.65875817257568  1.72935815694991
 85  -3.85943129622101  1.67353637774118
 86  -4.05940358901669  1.61501482322966
 87  -4.25859365686487  1.55388545785627
 88  -4.45691916906182  1.49025672569348
 89  -4.65429785988178  1.42425590691946
 90  -4.85064838211296  1.35603173196823
 91  -5.04589084970854  1.28575726369884
 92  -5.23994684886481  1.21363304902982
 93  -5.43273862886749   1.1398905256425
 94  -5.62418710676213  1.06479564247905
 95  -5.81420823464271 0.988652609688988
 96  -6.00270718690585 0.911807628911138
 97  -6.18956972947816 0.834652364013374
 98  -6.37465003704565 0.757626795098378
 99  -6.55775413316935 0.681220961433699
100   -6.7386180516539 0.605974960240572
101  -6.91687977205784 0.532476462368594
102  -7.09204399102838 0.461354987495577
103  -7.26343887716577 0.393272328123943
104   -7.4301641178936 0.328908922169459
105  -7.59102970284378 0.268946763773443
106   -7.7444845850504  0.21405075909002
107  -7.88853210855632 0.164852626964502
108  -8.02061901094442 0.121945962755052
109  -8.13743975749825 0.0859151768069356
110  -8.23433508423999 0.0574943105786188
111   -8.2980247131476 0.0395784570740753
112  -8.33143617572667 0.030431649723453
113  -8.40282751689825 0.0114779457917734
114  -8.50654927860518 -0.014561764239436
115  -8.68936925579691 -0.0558503094890672
116  -9.08180506715408 -0.121157391583611
117  -9.83651028547393 0.0308332728387587
118  -10.0242806304235 0.528801759360316
119   -9.8450751724856  1.06410694805226
120  -9.48377755079738   1.4318693820953
121  -9.05668453360606  1.67472385730877
122  -8.19721464838995   1.9008726570478
123  -7.31767932278558  1.99619686431746
124  -6.42867125378215  2.02017710324907
125  -5.53487681129404  2.02114324953202
126   -4.6385922369521  2.04292569994924
127  -3.74354516646356  2.10929595232785
128  -2.85446712714154  2.22424780619831
129  -1.97001612864441  2.36773086179379
130  -1.03139955857745  2.43804509167311
131  -0.0947355309593237  3.09276391707007
132  0.830784285292114  3.07810887460085
133   1.75336274419254  2.99276756077582
134   2.67133304977969  2.86355042090474
135   3.58587489688815  2.73614295557423
136   4.50338969808624  2.64628207241146
137   5.42735426265402  2.60044550241736
138   6.36065986944498  2.57791814818803
139   7.31328645832941  2.53020897889425
140   8.34650738166381  2.35825203849662
141   9.31621118012703  1.93086213914099
142   9.82517029521648  1.49525895416614
143   10.2005969559924 0.970289377496562
144   10.4168253999973 0.486619541099282
145   10.5536854947364 0.00402603075588279
146   10.6649348024868 -0.667998541060657
147   10.5090372154692 -1.92702115891801
148   10.2893422578228 -2.25682261097923
149   10.0104635133553 -2.52879052664684
150   9.67498911090234 -2.74641274249157
151   9.29354408122071 -2.90323967270306
152   8.91547666443076 -2.99075673395773
153   8.57116257492387 -3.02413768509278
154   8.25020288104156 -3.02180763157891
155     7.950689251097 -2.99435709630247
156   7.67032035487554 -2.94919945707554
157   7.40661718272452 -2.89156875305478
158   7.15719465429576 -2.82517982972517
159   6.91989969979927  -2.7526957384878
160   6.69285812511558 -2.67605458221973
161   6.47447163790413 -2.59669393834618
162   6.26339140302335 -2.51570271617642
163    6.0584831841911 -2.43392299807971
164   5.85879196946116 -2.35201818748493
165   5.66350977056079 -2.27051886589859
166   5.47194797425152 -2.18985410636298
167   5.28351445051655 -2.11037339586542
168   5.09769508674138 -2.03236253103769
169    4.9140392114512 -1.95605564172897
170   4.73214832159508 -1.88164468890712
171   4.55166754447504 -1.80928725117754
172   4.37227930850362 -1.73911307210722
173   4.19369875002653 -1.67122962971425
174   4.01567044108347 -1.60572686853344
175   3.83796608309011 -1.54268117340961
176   3.66038287223747 -1.48215864024474
177   3.48274230166499 -1.42421769596728
178   3.30488922072299 -1.36891112655471
179   3.12669102069101 -1.31628758060446
180   2.94803685759289 -1.26639262249041
181   2.76883685548588 -1.21926941169516
182    2.5890212578582 -1.17495908320975
183   2.40853951131024 -1.13350089862479
184   2.22735927580895 -1.09493222982933
185   2.04546536111615 -1.05928842828788
186   1.86285859122353 -1.02660262372008
187   1.67955459940601 -0.99690548740567
188   1.49558255715183 -0.970224987690076
189    1.3109838416049 -0.946586158679002
190   1.12581064858366 -0.92601089747498
191  0.940124561513554 -0.908517800405062
192  0.753995090113357 -0.894122044305744
193  0.567498195594941 -0.882835314947336
194  0.380714820705983 -0.874665781106251
195  0.193729442667985 -0.869618109758999
196  0.00662866485216549 -0.867693515566875
197  -0.180500140768214 -0.868889836418651
198  -0.367570133085678 -0.873201626382465
199  -0.554496240802553 -0.880620257935109
200  -0.74119634264851 -0.891134026595491
201  -0.92759239377509 -0.904728252793773
202  -1.11361150499459 -0.921385377617289
203  -1.29918698204151 -0.941085050662902
204  -1.48425933159371 -0.963804209329978
205  -1.66877723978327 -0.989517149329074
206  -1.85269852771183 -1.01819558585936
207  -2.03599108732054 -1.04980870378199
208  -2.21863379999116 -1.08432319317971
209  -2.40061743954798 -1.12170326395572
210  -2.58194556096743 -1.16191062961512
211  -2.76263537625853 -1.20490444615648
212  -2.94271861999043 -1.25064118721448
213  -3.12224240934855   -1.299074431477
214  -3.30127010813769  -1.3501545333207
215  -3.47988221171376 -1.40382814306619
216   -3.6581772814175 -1.46003753983735
217  -3.83627297371158 -1.51871973830109
218  -4.01430723183322 -1.57980533098039
219  -4.19243973713418 -1.64321703035634
220  -4.37085375388779 -1.70886787878536
221   -4.5497585453372 -1.77665909723439
222  -4.72939258984028 -1.84647754190696
223  -4.91002788335478 -1.91819272418842
224  -5.09197567689679 -1.99165331348183
225     -5.27559406313 -2.06668296912684
226  -5.46129789214354 -2.14307521511227
227  -5.64957155816365 -2.22058684979177
228  -5.84098524750044 -2.29892903078415
229  -6.03621525480186 -2.37775463432448
230  -6.23606892093694 -2.45663967532387
231  -6.44151454505994 -2.53505537060576
232  -6.65371613370935 -2.61232566804142
233  -6.87407182336533 -2.68756253145138
234   -7.1042528372482 -2.75956770612779
235   -7.3462362455831 -2.82668483002822
236   -7.6023185327667 -2.88657941191605
237  -7.87508647991345 -2.93591636483877
238  -8.16730600278993 -2.96989561378973
239   -8.4816774305092 -2.98159380005554
240  -8.82051661168396 -2.96100791374612
241  -9.19006901062319 -2.89223947062022
242  -9.57443503758019 -2.75685879804485
243  -9.91127778780004  -2.5656421906087
244  -10.2059189548337  -2.3139076064663
245  -10.4437988871339 -2.00589385895887
246  -10.6884777460101 -0.741579962366513
247  -10.6233789336052 -0.0624597182196049
248  -10.5199825166199 0.429002010962528
249  -10.3372537857629 0.924583220605296
250  -9.99486362808623  1.47172775509798
251  -9.50734861876272  1.93428545969767
252  -8.55157681122391  2.39621002404815
253  -7.51637137101288  2.58289601072866
254  -6.55827761322567  2.62703612350142
255  -5.62280696846236  2.63504707006922
256  -4.69699194035278  2.66060933473676
257   -3.7765198882555  2.72878170895187
258  -2.85719774846281  2.83672080663361
259  -1.93564950506249  2.95342944441361
260  -1.01514030633302  3.04495756631107
