// Id               X                Y
  1  -0.0746507193829419 0.142704295576205
  2  0.848803377234774 0.149134523768256
  3   1.80263781121221 0.157913493372538
  4   2.74295661096278 0.227848790210571
  5    3.6538979566414 0.449193328096178
  6     4.505944842626 0.818919236865473
  7   5.28817981351653  1.29838921751677
  8   6.02425275307774  1.82428519048816
  9    6.7722500547847  2.32070050511065
 10   7.60052068287746   2.6328246245143
 11   8.48431470063822  2.57583268587176
 12   8.88828912157707  2.30957099611003
 13   9.15159663333067  1.88658473103692
 14   9.17215637771205  1.37314580722135
 15   8.91032147883478 0.944692051175457
 16   8.23163932441563 0.722994179331752
 17   8.21199127712468 0.718350882234994
 18   7.90340498035604 0.656344751344071
 19    7.6033702608003 0.597972831695895
 20   7.32898039209111 0.540737859577054
 21   7.08281869079614 0.485233556337483
 22   6.86687985238153 0.433605469546096
 23   6.68479277417438 0.388638004094356
 24   6.53204675695562 0.350557344694376
 25    6.3887561912055 0.315045117874194
 26   6.24121530268412 0.279139013019281
 27   6.08714556510601 0.242768538651195
 28    5.9276381803225 0.206676247306425
 29   5.76421510928605 0.171617188261385
 30   5.59822632428639 0.138182111671058
 31   5.43075987845169 0.106777447644967
 32   5.26265974569051 0.0776474588122584
 33   5.09456547240303 0.0509070806142689
 34   4.92695295481458 0.0265743156141164
 35   4.76017023326736 0.00459796967413485
 36   4.59446633333002 -0.0151203599291878
 37   4.43001298811891 -0.0327096511220337
 38   4.26692009229695 -0.0483172076500021
 39   4.10524626043529 -0.0620997433151261
 40    3.9450060263196 -0.0742169007205033
 41   3.78617514690665 -0.084826526667579
 42   3.62869524668963 -0.0940812353244388
 43   3.47247869566096 -0.102125953570509
 44   3.31741419197513 -0.109096252698421
 45    3.1633730855474 -0.115117331809715
 46   3.01021612809257 -0.12030354298069
 47   2.85780015155078 -0.124758352684552
 48   2.70598418395602 -0.128574633485284
 49   2.55463466221634 -0.131835184934407
 50   2.40362960900306 -0.134613396027965
 51   2.25286182509194 -0.136973981025057
 52   2.10224126057445 -0.13897374111091
 53    1.9516967527948 -0.140662322139322
 54    1.8011772610108 -0.142082951261577
 55   1.65065260287314 -0.143273142274542
 56   1.50011352889267 -0.144265361880919
 57   1.34957079502491 -0.145087648269118
 58   1.19905276620309 -0.145764171265273
 59   1.04860107871666 -0.146315721598541
 60  0.898264083472843 -0.146760117174143
 61  0.748088236700487 -0.147112517736732
 62  0.598108284061752 -0.147385646022363
 63  0.448337867312623 -0.147589922280792
 64  0.298762790750333 -0.147733527675503
 65  0.149339228288913 -0.147822418013568
 66  -1.6985192335138e-06 -0.147860310761447
 67  -0.149343269496114 -0.147848665099799
 68  -0.298768778273118 -0.147786667972356
 69  -0.448347141796898 -0.14767123037672
 70  -0.598122242009976 -0.147496989031552
 71  -0.748108339518572 -0.147256300254684
 72  -0.898291860532852 -0.146939206672952
 73  -1.04863812816882 -0.146533354638948
 74  -1.19910075627981 -0.146023841871317
 75  -1.34963146587482 -0.145392980587474
 76  -1.50018869176329 -0.14461996963192
 77  -1.65074413077162 -0.143680477464059
 78  -1.80128706336845 -0.142546144254787
 79  -1.95182672623263 -0.141184014638984
 80   -2.1023932083911 -0.139555912955732
 81  -2.25303733933438 -0.137617771106672
 82  -2.40382991083341 -0.135318917055639
 83  -2.55486039899183 -0.132601331276014
 84  -2.70623518539126 -0.129398880907109
 85  -2.85807515302505 -0.125636548542665
 86  -3.01051247657986 -0.121229685349362
 87  -3.16368645181186 -0.116083336268319
 88  -3.31773831923258 -0.11009170620631
 89  -3.47280521641595 -0.103137856314461
 90  -3.62901359278923 -0.0950937340401198
 91  -3.78647256220161 -0.0858206472326462
 92  -3.94526766960506 -0.0751702943204584
 93  -4.10545536450714 -0.0629864696179372
 94   -4.2670581288952 -0.0491075904993415
 95  -4.43005978094735 -0.0333702575623605
 96  -4.59440006061024 -0.0156141722802132
 97  -4.75996726353608 0.00431109624115009
 98  -4.92658746273012 0.026536791851241
 99  -5.09400878879172 0.0511621756956777
100   -5.2618794198881 0.0782371919569445
101  -5.42971849284888 0.107739648493447
102  -5.59688023590768 0.139546621282222
103  -5.76251358338922 0.173401420570945
104  -5.92552414836419 0.208880854009366
105  -6.08456201310713 0.245375132421613
106  -6.23813376302561 0.282115783154782
107  -6.38530469167756 0.318382914557423
108   -6.5290320671376 0.354417447244562
109  -6.68433090278084 0.393539313276845
110  -6.87035780420301  0.43987302735683
111  -7.09032168281294 0.492768486912217
112  -7.34058814579946 0.549356971690646
113  -7.61934584851038 0.607533491538776
114  -7.92322653819143  0.66680262751768
115  -8.23356785014827 0.730210257923327
116  -8.23356808062067 0.730210313385849
117  -8.91208028792945 0.950642794006454
118  -9.17816405959069  1.37593977894463
119  -9.16634027403448  1.88880936728922
120   -8.9122767254281  2.31648836543744
121  -8.51443358396836  2.59061891250265
122  -7.63238954307349  2.66090524945193
123  -6.80365822987465  2.35374906848374
124  -6.05900378391275  1.85642570557745
125  -5.33002039880445  1.32677782169867
126  -4.55814008136088 0.842053487156922
127  -3.71949688730305 0.465210748759681
128  -2.82505675701421 0.235383015742976
129   -1.9026801962374 0.154762971474117
130  -0.98816625619478 0.107156778635506
131  -0.00619032049185388 0.718711171538706
132  0.892080165268733 0.729382275526758
133   1.78797651754986 0.751808811387777
134   2.67895282720201 0.842620461130031
135   3.54817987026924  1.06086331515726
136   4.37307207326485  1.42549774047325
137   5.15158458262815  1.90467424810727
138   5.92819843743295  2.43511606048633
139   6.84104013496663  2.93784404081022
140   7.89915972517447  3.16693695583665
141   8.93285089444333  2.84316317497069
142   9.39749652689047  2.33541872682447
143   9.62485971543759  1.70301751964064
144   9.65798102975161  1.14064313274436
145   9.60556634417314 0.613409938449804
146   9.49732697725824 -0.0606829723077063
147   8.86322771286517 -1.87800096384234
148   8.76897881909867 -1.96422972249151
149   8.70897537270741 -2.01399123709843
150   8.63331417615011  -2.0718248685434
151   8.53377548546765 -2.14070143760302
152   8.40737804877802 -2.21821797513382
153    8.2487526145796 -2.30255795714019
154   8.06038632817396 -2.38772072972689
155   7.86106851547886 -2.46390468700694
156   7.66492067377458 -2.52789595570489
157   7.47491236610738 -2.58164142689393
158   7.29021558686564 -2.62765056648001
159   7.10926629871811    -2.66791409364
160   6.93054863845418 -2.70389091858659
161   6.75279450979725 -2.73663829381272
162   6.57501862436904 -2.76692667328976
163   6.39649738093109 -2.79532276881944
164    6.2167281287406 -2.82224648757154
165   6.03538483147139 -2.84800920084524
166   5.85227778394112 -2.87283936830589
167    5.6673204883423 -2.89689993246336
168   5.48050415083407 -2.92030057770361
169     5.291878859104 -2.94310694434251
170   5.10153991580054 -2.96534815417144
171    4.9096177012065  -2.9870234805697
172   4.71626961061289 -3.00810862505736
173   4.52167294781485 -3.02856179515143
174    4.3260180875574 -3.04832958536416
175   4.12950166651031 -3.06735253295271
176   3.93231992521008  -3.0855701524158
177   3.73466252135697 -3.10292524704066
178   3.53670714744922 -3.11936734104937
179   3.33861516131901 -3.13485515127857
180   3.14052826028439 -3.14935809877008
181   2.94256607598367 -3.16285692969322
182   2.74482448297679 -3.17534356217661
183   2.54737441447402  -3.1868203000539
184   2.35026105853545 -3.19729856050894
185   2.15350345439728 -3.20679725653289
186   1.95709469879123 -3.21534096342862
187   1.76100316795069 -3.22295798661917
188   1.56517530133679 -3.22967843921358
189   1.36954049627597 -3.23553243299037
190   1.17401844337399 -3.24054848343268
191  0.978528734842257  -3.2447522228047
192  0.783001822110873 -3.24816549735618
193  0.587389534844682  -3.2508058879312
194  0.391672710502205 -3.25268663414569
195  0.195863445916536 -3.25381686768317
196  4.20132360776548e-07 -3.25420199157197
197  -0.195862378476537 -3.25384401178329
198  -0.391670978660729 -3.25274166167696
199  -0.587386754567217 -3.25089025750143
200  -0.78299770249068  -3.2482813474034
201  -0.978523120210878 -3.24490231374109
202  -1.17401135226054 -3.24073612219227
203  -1.36953215032365 -3.23576138024315
204  -1.56516613837299 -3.22995279882384
205  -1.76099383643993    -3.22328207639
206   -1.9570860345863 -3.21571916592524
207  -2.15349644391703 -3.20723384886873
208  -2.35025679462067  -3.1977975223443
209  -2.54737405212701 -3.18738509963251
210   -2.7448292022118 -3.17597692096125
211  -2.94257705837591 -3.16356056706881
212  -3.14054668459226 -3.15013245939426
213  -3.33864222152441 -3.13569911904956
214  -3.53674409321599 -3.12027794537556
215  -3.73471071569428  -3.1038973690737
216  -3.93238090694263 -3.08659624102497
217  -4.12957719690227 -3.06842234202806
218  -4.32611015349655 -3.04942994492115
219  -4.52178369198405 -3.02967642784184
220  -4.71640116568774 -3.00921801636304
221  -4.90977192189859   -2.988104804975
222  -5.10171802749434  -2.9663752514651
223  -5.29208106981054 -2.94405033098146
224  -5.48072929862589 -2.92112746871195
225  -5.66756581643323 -2.89757423945167
226  -5.85253895069279 -2.87332162696938
227   -6.0356562745172 -2.84825636313855
228  -6.21700390912412 -2.82221148482647
229  -6.39677262335483 -2.79495370725192
230  -6.57529161809305 -2.76616545881836
231  -6.75306939950404  -2.7354183991734
232   -6.9308383555268  -2.7021339120249
233  -7.10959486008868 -2.66552448021356
234  -7.29061781334022 -2.62450858742968
235  -7.47542602211664  -2.5775943782768
236  -7.66555379376977 -2.52275394097892
237  -7.86166786284803 -2.45747725312624
238  -8.06014507742963 -2.38007002228642
239   -8.2457036987845 -2.29456775311405
240  -8.40038766815811 -2.21098630846704
241  -8.52295536565531 -2.13488571531201
242  -8.61856766218392 -2.06818691562674
243  -8.68986371768451 -2.01351830868825
244  -8.74624200938328 -1.96686274227189
245  -8.84021403604564  -1.8813648519935
246  -9.48917023248917 -0.0598274462771815
247  -9.60465739547523 0.613432411133484
248  -9.66407530888065  1.14114985752796
249  -9.63889759780741  1.70574351658482
250  -9.42055571126137   2.3417358522103
251  -8.96282584083004   2.8561915975936
252  -7.93290666275789  3.19283533095635
253  -6.87204895795726  2.97073709332138
254  -5.95398492217912  2.46542790948171
255  -5.17587287907685  1.92864315310563
256  -4.39812818691444  1.44204278383414
257    -3.573397995898  1.06852571043617
258  -2.70203317434737 0.839333752533019
259   -1.8060452583462  0.73528887007204
260  -0.904847199726165 0.707660637165577
