// Id               X                Y
  1  -0.0850463920902079  1.63302406953784
  2  0.852529919516097  1.65154258552979
  3   1.78510154795549  1.65422570952965
  4   2.70543696410142  1.64638965776476
  5    3.6542028753987  1.60237675365297
  6   4.59380870845199  1.62303667808407
  7   5.51709452850278  1.76517299317976
  8   6.41279050888562  2.00462807320247
  9   7.29979020039434  2.25099421115947
 10   8.21012900713202  2.35038565918719
 11   9.08977769235216  2.09437219506751
 12   9.45022846117412  1.72482388141264
 13   9.61681994072923  1.22863641972524
 14   9.51761962311849 0.723450555940349
 15   9.17822441499095  0.36162162725087
 16   8.45886896025005  0.25046014288237
 17   8.14818537933519 0.284529587227428
 18    8.0042363135996 0.308752953246528
 19   7.90122446214196 0.328984170435391
 20   7.87629990996583 0.334211842712165
 21   7.82809784742352 0.344674909419786
 22   7.73176621155009 0.366939638950874
 23   7.61333426792968 0.396537750189588
 24   7.47945744481813  0.43256128538695
 25   7.33431827222624 0.474166439559478
 26   7.18082351294246 0.520422985772284
 27   7.02101481065177 0.570342490095594
 28   6.85631510994517 0.622928925473398
 29   6.68770484837734 0.677221918467927
 30   6.51585315218752 0.732326813809527
 31   6.34121571397953 0.787432611160694
 32   6.16410737523711 0.841820597318117
 33   5.98475567725404 0.894866528262418
 34   5.80334022638009 0.946038732195273
 35   5.62002142186131  0.99489394019679
 36   5.43496096865521  1.04107212520657
 37   5.24833572460105  1.08429116026615
 38   5.06034585880367  1.12434169884107
 39   4.87121802089668  1.16108235244688
 40   4.68120418069424  1.19443501908094
 41   4.49057689910151  1.22438011470529
 42   4.29962192944974   1.2509514706751
 43   4.10862914001361  1.27423075061337
 44   3.91788274977867   1.2943413664471
 45   3.72765177863311  1.31144199355358
 46   3.53818145625873  1.32571987175638
 47   3.34968614607806  1.33738412223023
 48   3.16234414988942  1.34665931378135
 49   2.97629457997811   1.3537794856652
 50   2.79163632158609   1.3589827889646
 51   2.60842895783315  1.36250685321356
 52   2.42669539209036  1.36458492575565
 53   2.24642578666534  1.36544277363618
 54   2.06758235500659  1.36529628711789
 55   1.89010451248965  1.36434968567933
 56   1.71391391771036  1.36279420591331
 57   1.53891902018617  1.36080714765585
 58    1.3650188564599  1.35855116786662
 59   1.19210598018677  1.35617373593215
 60    1.0200685458027  1.35380669221353
 61  0.848791667901868  1.35156587730919
 62  0.678158237701839  1.34955081831212
 63  0.508049393268102   1.3478444688542
 64  0.338344819544909  1.34651300305688
 65   0.16892301045772  1.34560566229752
 66  -0.000338427982844626  1.34515465095388
 67  -0.16956240575799   1.3451750753869
 68  -0.338871920493574  1.34566492060347
 69  -0.50838960900015   1.3466050613339
 70  -0.678237320147711  1.34795930775897
 71  -0.848535736859018  1.34967448948383
 72  -1.01940404474829  1.35168058335836
 73  -1.19095960255421  1.35389089080594
 74  -1.36331752192124  1.35620226886785
 75  -1.53659002056664  1.35849541771676
 76  -1.71088538444649  1.36063522828904
 77  -1.88630637228863  1.36247119945479
 78  -2.06294792828389   1.3638379465449
 79  -2.24089413856229  1.36455584210826
 80  -2.42021446881574  1.36443185316183
 81  -2.60095943980813  1.36326066238334
 82  -2.78315601401611  1.36082617791463
 83  -2.96680305858292  1.35690354229938
 84  -3.15186730030653  1.35126174217196
 85  -3.33828018990459  1.34366689618662
 86  -3.52593604780489  1.33388626171801
 87  -3.71469178191829  1.32169295531992
 88  -3.90436836110199   1.3068713326498
 89  -4.09475410540862  1.28922292523396
 90  -4.28560971960558  1.26857278872719
 91  -4.47667484949724    1.244776085723
 92  -4.66767578079077   1.2177247127555
 93  -4.85833373241083  1.18735379383429
 94  -5.04837303431103  1.15364790754049
 95   -5.2375283465184  1.11664699031614
 96  -5.42554999518282  1.07645195222068
 97  -5.61220648478381  1.03323012667499
 98  -5.79728327955143 0.987220716510713
 99  -5.98057698406814 0.938740358800591
100  -6.16188401568255 0.888188785465021
101  -6.34098265905748 0.836054299186685
102  -6.51760694456959 0.782918426368732
103  -6.69141004655391  0.72945867250146
104  -6.86191384647223 0.676447815334071
105    -7.028439981842 0.624747667254413
106  -7.19001613439583  0.57529483474379
107  -7.34524933382088 0.529076056117819
108  -7.49215442421646 0.487092221817244
109  -7.62791405261262 0.450316037819609
110  -7.74849094708363 0.419668441667882
111  -7.84763802072759 0.396134795287972
112  -7.90257058536654 0.383823641955371
113  -7.93506037909373 0.376801060746853
114  -8.04168121100549 0.355147365031578
115   -8.1865419331507 0.329529838668787
116  -8.49366376317954 0.291823998798324
117  -9.21445669380913 0.385789721438337
118  -9.56583677010472 0.736403945694782
119  -9.68372765400559  1.23756841171705
120  -9.53498020290355  1.73950982765757
121  -9.18579375101944  2.11917992213527
122  -8.31198425124732  2.38901378497841
123   -7.4044586114258  2.29038478524018
124  -6.52481323152155   2.0365686850609
125  -5.64099153243879  1.78642819519302
126  -4.73349822550788  1.63400661077808
127  -3.81358624974534  1.60492410514847
128  -2.88139755438386  1.64448987690606
129  -1.96443025523173  1.65212039920147
130  -1.02134962754767  1.62195255169277
131  -0.0649766366273847  2.24087453414492
132  0.861769929325612  2.25610520366679
133   1.78926968690274  2.25738689310971
134   2.71774939678703  2.23677504124967
135   3.64548849704448  2.21069412753446
136    4.5722255669593  2.23865821558114
137   5.48970711034351  2.38114264801793
138   6.39417822415684  2.62083448695969
139   7.31003015136853  2.86650517383114
140   8.26694698438745  2.95874664859737
141   9.18909742458013  2.68740331024817
142   9.65577581171485  2.25563316144332
143   9.92975611293082  1.65842001440187
144   9.98474264312771   0.9794317246936
145   9.93188614987103 0.296363950420938
146   9.99091248560271 -0.365431844300229
147   10.1114965160169 -1.56225771428037
148   9.93638375644287 -1.88322674095574
149   9.70056558792053 -2.13497119514214
150   9.38226956381866 -2.34536693632965
151   9.04705650684247 -2.47851410227803
152   8.73619955543881 -2.54789161542353
153   8.44138174535206 -2.57742250374604
154   8.16198463647348 -2.57944861645023
155   7.89659643390276 -2.56233967019234
156   7.64348633630781 -2.53193353982867
157   7.40097080371708 -2.49239208214404
158   7.16756576890374  -2.4467545290449
159   6.94202088250377 -2.39729326117897
160   6.72330183045456 -2.34574128744855
161   6.51055525890943 -2.29343878178344
162   6.30307180531524   -2.241429488671
163   6.10025293302826 -2.19052620020855
164   5.90158287443035 -2.14135698913632
165   5.70660542259385 -2.09439929097736
166   5.51490505331874 -2.05000620376385
167   5.32609206767389 -2.00842773417822
168   5.13979168640591 -1.96982867018896
169   4.95563711301327 -1.93430403659737
170   4.77326647554178 -1.90189257681958
171    4.5923233130181 -1.87258836686468
172   4.41245998639334 -1.84635049566696
173   4.23334315885722 -1.82311072148218
174   4.05466036703777 -1.80277910014983
175   3.87612671061369 -1.78524772770414
176   3.69749080530109 -1.77039289624012
177   3.51853933639479 -1.75807608720712
178   3.33909977842678 -1.74814429489258
179   3.15904108066537 -1.74043017491734
180   2.97827233827509 -1.73475245129227
181    2.7967396626876 -1.73091690395963
182   2.61442162258958 -1.72871811643548
183   2.43132373895293 -1.72794201350359
184   2.24747257325639  -1.7283690853147
185   2.06290993970794 -1.72977809617112
186   1.87768769956147 -1.73195002535375
187   1.69186346927908 -1.73467198504558
188   1.50549741608711 -1.73774089831657
189   1.31865015276503 -1.74096678300305
190   1.13138160596664 -1.74417555776541
191  0.943750638999398 -1.74721134979528
192  0.755815169071164 -1.74993833027695
193  0.567632527178916 -1.75224213076558
194  0.379259854253031 -1.75403090314512
195  0.190754394170348 -1.75523608262081
196  0.00217361727382326 -1.75581290274552
197  -0.186424825680078 -1.75574069827558
198  -0.374983268648668 -1.75502301848808
199  -0.563444234430014 -1.75368756151723
200  -0.751750591397108 -1.75178592903867
201  -0.939845593246921 -1.74939318940532
202  -1.12767276983434 -1.74660722543307
203  -1.31517569119859 -1.74354783062838
204  -1.50229769023099 -1.74035550629865
205  -1.68898169221717 -1.73718990480509
206  -1.87517034949231 -1.73422786553634
207  -2.06080670360485 -1.73166100455914
208  -2.24583558446319 -1.72969284952158
209  -2.43020589999062 -1.72853555817606
210  -2.61387387318496 -1.72840631702842
211  -2.79680715804156 -1.72952357620269
212  -2.97898963123398 -1.73210332406407
213  -3.16042653580888  -1.7363556262916
214  -3.34114956710764 -1.74248163803785
215   -3.5212214533234 -1.75067124028701
216  -3.70073959832369 -1.76110135652888
217  -3.87983841995456  -1.7739348851668
218  -4.05869012618445 -1.78932005389852
219   -4.2375038163766 -1.80738988418109
220  -4.41652296833307 -1.82826136546504
221  -4.59602156539221 -1.85203389507717
222  -4.77629931987744 -1.87878654897093
223  -4.95767664070907 -1.90857381040431
224   -5.1404901474192 -1.94141948538495
225  -5.32508961986626 -1.97730864921711
226  -5.51183726838696 -2.01617755873008
227  -5.70111010783925 -2.05790148282015
228  -5.89330604584125 -2.10228030253758
229  -6.08885410639683 -2.14902146968112
230  -6.28822907794155 -2.19771945153977
231  -6.49197085925581 -2.24783007470326
232  -6.70070887863139 -2.29863710039981
233  -6.91519205958577 -2.34920668129711
234  -7.13632455744267 -2.39832261920939
235  -7.36520616194135 -2.44439082033037
236  -7.60317244065856 -2.48529394000241
237  -7.85182087666161 -2.51816558338853
238  -8.11299149154446 -2.53903635168603
239  -8.38863957192646  -2.5422805724478
240  -8.68050179084238 -2.51975654484902
241  -8.98956060420122 -2.45939872354379
242  -9.32339520872006 -2.33870815574926
243  -9.64476692934255 -2.14256127482832
244  -9.88801964024489 -1.90281489925916
245  -10.0752678160558 -1.59160504734095
246  -9.99669971350967 -0.37617775969197
247  -9.96418551218163 0.288733252538924
248   -10.044465103098   0.9696853424274
249  -10.0162434916571  1.65095620486889
250  -9.76362430480089  2.25820921066599
251  -9.30859772444978  2.70490677664175
252  -8.38787574069977  2.99478294557189
253  -7.42501561685012  2.90556589386702
254  -6.50937811603938  2.65297171670107
255  -5.60850766450864   2.4023240804265
256  -4.69434148216334   2.2490714744693
257  -3.76919163401087  2.21312359500525
258  -2.84209335307919  2.23248780319487
259  -1.91446439880653   2.2417021886108
260  -0.988538050540058  2.23345824950186
