// Id               X                Y
  1  -0.511026470561583  16.9099805481177
  2  0.600570410144727  16.7739723598105
  3   1.61183665709366  16.2944846894489
  4   2.53341967504689  15.6898093890628
  5   3.39807186426835  15.0265397419973
  6    4.2282429348337  14.3385255294072
  7   5.03345853568086  13.5875658419821
  8   5.80675506901117  12.7724136750144
  9   6.45662351344499  11.8697799577298
 10   6.95252236077202  10.8915876703753
 11    7.3552045218737  9.91226263067053
 12   7.60803736287853  9.31126185570796
 13   7.86732488203135  8.71461666790443
 14   8.12528629551504  8.11985600099417
 15   8.33709173351501  7.57962889608221
 16   8.47050133184607  7.15261777057779
 17   8.52160269438826  7.00427193435425
 18   8.70742213111592  6.51773614356186
 19   8.90017337756735  6.03418271322366
 20   9.07887042229023  5.54835672371044
 21    9.2171006378005  5.06083124091891
 22   9.28382187113045  4.58248141327519
 23   9.25514914195617  4.14305117533872
 24     9.144522485185  3.79667768134432
 25   9.00327530578157  3.56181626082039
 26   8.82319128034346  3.37080332982149
 27   8.60951201944098  3.22624661123339
 28   8.36257242397969  3.13096665705883
 29   7.95743243944181  3.09923405094591
 30   7.65716723352676  3.16638817705643
 31   7.42798773765698  3.27744611324995
 32   7.22709806365276  3.43162463483393
 33   7.05528364711401   3.6273288090564
 34   6.91712378345227  3.86172350669686
 35   6.81066690325702  4.15532455921383
 36   6.74752537841762  4.56233501604469
 37   6.75577296165268  5.01692074226077
 38   6.82145863674506  5.49554471317292
 39   6.92019331435504  5.98484258960387
 40   7.02904599565309  6.48081394124635
 41   7.13034038068845  6.98322836018989
 42   7.21129342754498  7.49227458776038
 43   7.26288489123379  8.00731762689859
 44   7.27890132827936   8.5267471574174
 45   7.25521926106244  9.04820019353898
 46   7.18928426417525  9.56879111347152
 47   7.07976257622205  10.0852807080896
 48   6.92631832752701  10.5942351736701
 49   6.72946000181067  11.0921947091715
 50   6.49042372966821  11.5758391967592
 51   6.21108329550434  12.0421458516115
 52   5.89388402752107  12.4885488978621
 53   5.54179810369287  12.9131183534346
 54   5.15830055537146  13.3147756843158
 55   4.74737477461395  13.6935588995928
 56   4.31358871483712  14.0509214650485
 57   3.86236119591484  14.3899356584776
 58   3.40036169028972  14.7150724884702
 59   2.93397098281723  15.0318236841624
 60   2.46748713596666  15.3454583641534
 61   2.00600359354462  15.6571937487463
 62   1.55245050976602  15.9615948902164
 63   1.10493067980287    16.24388052565
 64  0.658031267654857  16.4795266944422
 65  0.212019435627355  16.6374397817856
 66  -0.130232772147329  16.6875346317248
 67  -0.308462484702326  16.6847943001589
 68  -0.622266232880499   16.631366630161
 69  -1.06241657035268  16.4645357134529
 70  -1.50025620318768  16.2180113608343
 71  -1.93623545095617  15.9228831082869
 72   -2.3767572150708  15.6038789520796
 73  -2.82459377553408  15.2763680981629
 74  -3.27730105940708  14.9465241989677
 75  -3.72992387918805  14.6137156192626
 76   -4.1780720891596  14.2729762913544
 77  -4.61508164268426  13.9191358661909
 78   -5.0341088985365  13.5479794560575
 79  -5.42965926771717  13.1566207753953
 80  -5.79717808453451  12.7437590417052
 81  -6.13277844058361   12.309486905647
 82  -6.43315669309044  11.8549895372671
 83  -6.69558064542102  11.3822725337618
 84  -6.91791114645674  10.8939372133264
 85  -7.09864865591141  10.3929910971495
 86  -7.23700496636559  9.88267616026971
 87  -7.33300249992246  9.36630111153209
 88  -7.38760798502787  8.84707528989683
 89  -7.40292206123991  8.32795358646499
 90  -7.38246904675093  7.81149128235621
 91  -7.33163658956757  7.29967937944253
 92  -7.25829215276778  6.79378282176215
 93  -7.17358785168821   6.2944207920658
 94  -7.09288657233998    5.802434496828
 95  -7.03618302451176  5.32133642741456
 96   -7.0257219368303  4.86167748853861
 97  -7.07725029583337  4.44362972864857
 98  -7.18185258632741  4.10669780183559
 99  -7.31027025124818  3.85978985769252
100   -7.4711613981023  3.64961708268503
101   -7.6620518073026  3.47712690298454
102  -7.87942493934041  3.34554186482976
103  -8.13737326975212  3.25431708614905
104  -8.55077757151646  3.22659747914186
105  -8.81976850892437  3.28569809192285
106  -9.04850391665592  3.39276228616786
107  -9.25043323104974   3.5462733301444
108  -9.41921894823276  3.74191302748894
109  -9.55186572366868  3.98093833773279
110   -9.6541543485689  4.33669918486036
111  -9.67236896716532  4.77862686930002
112  -9.59579300640947  5.25521294137393
113  -9.44706170603192  5.73620514031275
114  -9.25583611302242  6.20829612753533
115   -9.0462301280227   6.6744294355177
116  -8.98807963091216  6.80397286661547
117  -8.80873106759273  7.20607913469367
118  -8.53732102708228  7.68678909055104
119  -8.21830152702543  8.17904697996086
120  -7.85648813820518  8.68572520223605
121  -7.50301856831466  9.12398754543169
122  -6.66893817060286  9.81245200835084
123  -5.86009457993035  10.4964628493104
124  -5.08156964260955   11.218698144056
125  -4.34802867297103  11.9907504482438
126  -3.66937444846163  12.8150691856164
127  -3.03975943680529  13.6789289580815
128  -2.43809678825777   14.553927705041
129  -1.86850464245934  15.3800309798107
130  -1.29950626495997  16.1698888336144
131  0.0386367627859795  17.0825972610934
132   1.15220005553591  17.0021538210046
133   2.17215721647122  16.5578606652545
134   3.10133393055844  15.9336593980112
135   3.97932873254766  15.2306313300182
136   4.82566154331427  14.4836660408364
137   5.63618285220059  13.6937426837051
138   6.38581206925884  12.8443014267534
139   7.03044804549825  11.9179231079383
140   7.53958306282388  10.9232271712628
141   7.96514418954935  9.89280616847206
142   8.22136738048447  9.22736462944409
143   8.47659327956079  8.56170464576681
144   8.74203468007136  7.89985289480394
145   9.03212842256521  7.24569445148552
146   9.39143918913778  6.55806377367795
147   10.1597593366233  4.83230018681299
148   10.3145560754425  4.05788356544458
149   10.3511100433959  3.35022894397994
150   10.2847763058209  2.68607821616526
151   10.1196539431379  2.06155251581888
152   9.86395330282977  1.50326197806167
153    9.5508601932307   1.0587347467038
154   9.22624167654625 0.744273097888788
155   8.89177830975733 0.522370906767562
156   8.57923547084675 0.386867122645442
157    8.2936477955825 0.314922273298092
158   8.04209047221054 0.289707709146315
159   7.96029117754841 0.289113962069601
160   7.77626043229055 0.301425425282465
161   7.52283804357441  0.34975908563319
162   7.25102107325155 0.443971135772761
163   6.96664396332775 0.594950807503515
164   6.67318672075414 0.818768975107466
165   6.38789953453452  1.12521075359104
166   6.12999502182151   1.5177553386942
167   5.90884779659291   2.0147359034297
168   5.75298267300793   2.5755111642769
169   5.66711994007888  3.15923960937895
170    5.6413933537492  3.73810046997366
171   5.66056296481961   4.2966256396481
172   5.70918630762739  4.82897103320927
173   5.77417107762131  5.33589007554124
174   5.84536641526864  5.82162032543509
175   5.91501422529225  6.29129607232162
176   5.97697720163767  6.74951626120798
177   6.02619764376953  7.19998507701154
178   6.05836298829863  7.64559468235089
179   6.06966543771563  8.08850085189031
180   6.05663058278179  8.53011272947741
181   6.01602526468228  8.97106144653915
182   5.94483789869713  9.41120350010295
183   5.84030157945415  9.84968676373715
184   5.69990687556331  10.2851099245292
185   5.52127535143236  10.7158991293258
186     5.301417877435  11.1413982862313
187   5.03392754733527  11.5647000934266
188   4.70501005421345    11.99323790639
189   4.31222950724775    12.41364825428
190   3.87774000070032   12.794111473805
191   3.40326650951685  13.1315363929917
192   2.88625979652788  13.4237935718913
193   2.32976164070908  13.6632261540575
194   1.74324976545393   13.841227955448
195   1.13097298108163  13.9556269994976
196  0.385049580983058  14.0136099384586
197  -0.675003813187402  13.9954161617572
198  -1.43380728172765  13.9136265699312
199  -2.03811686658806  13.7817808750289
200  -2.61595484283519  13.5872274456133
201  -3.16300532188985  13.3314653308759
202  -3.66924175456246  13.0232985611363
203  -4.13150510635358  12.6706606896089
204  -4.55241406301062  12.2757784003209
205  -4.93002250070888  11.8425811743027
206  -5.24309940768656  11.4048226664241
207  -5.49577180629664  10.9748360600032
208  -5.70196825901339  10.5444440630464
209  -5.86825964154846  10.1102108742814
210  -5.99795628601462  9.67240711962966
211  -6.09375239334691  9.23214481843231
212  -6.15841233910285  8.79032174213775
213  -6.19489803453927  8.34728181016149
214  -6.20638233971417  7.90269153375042
215  -6.19626735347802  7.45550534754206
216  -6.16825215432576   7.0039806253844
217  -6.12646799083644  6.54570213572669
218  -6.07568011522102   6.0775651637749
219  -6.02156275784718  5.59573819059176
220  -5.97110391873709  5.09587406027365
221   -5.9331820193332  4.57408592717125
222  -5.91907825734814  4.02897512560446
223  -5.94226859348083  3.46436932842216
224  -6.01672309476441  2.89216917916437
225  -6.15305703177334  2.33494707793317
226  -6.35148288575006  1.82721776831168
227  -6.59301340659602  1.40782579149176
228  -6.85636587790035  1.08204825939745
229  -7.14182881751941 0.826163678458409
230  -7.42240325112897  0.64563474742328
231  -7.69183583207488 0.524979733915383
232  -7.94771853472853 0.451761646965229
233   -8.1686440229556 0.418474671228389
234  -8.23371764490884 0.413850993373586
235  -8.45469097382736 0.415125479009561
236  -8.72172539654698  0.45171304023502
237  -9.01442050491962 0.536993472157521
238  -9.33255260966894 0.688245121203192
239  -9.66746489853224 0.925848762361454
240  -9.98830967277884   1.2535121392957
241   -10.294795582621  1.70917366496591
242  -10.5418879121272  2.27733923476102
243  -10.6969406725084  2.92581751177815
244  -10.7411454973565   3.6562804843496
245  -10.6450379513656  4.47650559939083
246   -9.9109758591341  6.22935065495982
247  -9.51849955017069  6.90123384227855
248  -9.16390988271341  7.52414191553426
249  -8.79302378112475  8.13635164381557
250  -8.38885443240899  8.72798040731444
251  -7.94042734869459  9.29364342518046
252  -7.17089130533396  10.1088942204699
253  -6.34489586546566  10.8693428665794
254  -5.52684204487288   11.637117460867
255  -4.75112793499982  12.4483234995446
256  -4.02946953450715   13.309709009067
257  -3.35245804274164  14.2095927945633
258  -2.68410222684842  15.1220801781743
259  -1.94777749001137  15.9923713088238
260  -1.03769718812015  16.6943451415888
