// Id               X                Y
  1  -0.109130179931252  8.76021818644612
  2   0.98761255806312  8.72668575581864
  3   2.04729647023407  8.51281139760091
  4   3.07003673838312  8.13239323659795
  5   4.02666155444788   7.6386004024943
  6   4.84533852397165  6.93593531055601
  7   5.50389262897721  6.17822944637221
  8   6.11328287641008  5.31586311153368
  9   6.77286786982989  4.51193074532677
 10   7.47177981309222   3.8092287467109
 11   8.19674331632081  3.06803668040565
 12   8.49433331801709  2.57598142106122
 13   8.63656775982296  2.02612006053946
 14   8.53349323786352  1.48477774744638
 15   8.17476912465378  1.11252089691498
 16   7.48298786070672  1.08377578531999
 17   7.17683031306182  1.21776794492305
 18   7.08620443816895  1.27813293376525
 19   7.01314750986619  1.33533748698195
 20    6.9445171293616   1.3968790528479
 21   6.87923921967461  1.46349123118355
 22   6.81711092334896   1.5351395557637
 23   6.75778109252727  1.61238057494745
 24   6.70075987222132  1.69603995312446
 25   6.64582961827881   1.7870626321287
 26   6.59295482864486  1.88627957819155
 27   6.54226287715024   1.9944470478116
 28    6.4939085006353   2.1123096277091
 29   6.44798900970345  2.24075799520241
 30   6.40444035272778  2.38111254848458
 31     6.362888641799  2.53580353885449
 32    6.3223103278536  2.71032749212064
 33   6.28114500028224  2.91368550137448
 34   6.24027274348043  3.13921563862748
 35    6.1992476457181  3.37826169289809
 36   6.15598043852757  3.62666391541839
 37   6.10791354179051   3.8818488758117
 38   6.05248694156993  4.14181499790649
 39   5.98736258210739  4.40476098957781
 40   5.91054673539101    4.668941231098
 41   5.82045290303111   4.9326235911525
 42   5.71592297298912  5.19409736200814
 43   5.59621833643554  5.45170194962072
 44   5.46099176001207  5.70385844639478
 45   5.31024993326945  5.94909519227861
 46   5.14431386866184  6.18606597095442
 47   4.96377987731723  6.41356450804106
 48   4.76947909745179  6.63054051981246
 49   4.56243032440871  6.83612072935639
 50   4.34378090318367  7.02963376755221
 51   4.11473502320939  7.21063204690054
 52    3.8764775457272  7.37889910576172
 53   3.63011024378594  7.53443145568277
 54   3.37661830500703  7.67739211805263
 55   3.11687346344941  7.80804565437141
 56   2.85166218398968  7.92669308104753
 57   2.58171667821662  8.03362319769711
 58   2.30773115819972  8.12908677745451
 59   2.03035989479167  8.21328985845508
 60   1.75020529563862  8.28639782629452
 61   1.46780689731837  8.34854296138065
 62    1.1836379286837  8.39983135998944
 63  0.898110344432808  8.44034792430615
 64  0.611585604209641  8.47015956634291
 65  0.324387665353071  8.48931716854972
 66  0.0368156300909282  8.49785675527936
 67  -0.250845025869031   8.4958001415989
 68  -0.538312492751082  8.48315518730516
 69  -0.825299084351591  8.45991570318182
 70   -1.1115010943194  8.42606100023221
 71  -1.39658736470213  8.38155500687596
 72  -1.68018672697644  8.32634477355857
 73  -1.96187577345469  8.26035802175789
 74  -2.24116979100205  8.18349922306056
 75  -2.51752024696663  8.09564372319702
 76  -2.79032071597618  7.99663008994645
 77  -3.05891888527726  7.88625267376199
 78  -3.32262664676565  7.76425935292411
 79   -3.5807175089504   7.6303622574045
 80   -3.8324055707574  7.48426896451284
 81   -4.0768132007881   7.3257355316766
 82  -4.31294701232033  7.15463213985046
 83  -4.53970247618012  6.97100384204786
 84  -4.75590428985965  6.77510992003943
 85  -4.96037272166869  6.56743544975933
 86  -5.15199791487421  6.34868036430682
 87  -5.32980750179286  6.11973731223266
 88  -5.49302183590786  5.88166857082241
 89  -5.64109877915028  5.63568733183983
 90  -5.77377328754367  5.38314333177525
 91  -5.89109627480311  5.12550906864545
 92  -5.99347377406707  4.86436175650031
 93  -6.08170283661133  4.60135831074784
 94  -6.15699650952802   4.3382059859639
 95  -6.22098778101089  4.07663896742925
 96  -6.27570142208534  3.81842057681839
 97  -6.32348087372944  3.56540408111965
 98  -6.36684857321429  3.31971540919858
 99  -6.40824394768835  3.08422342789182
100  -6.44944765814739  2.86388160947003
101  -6.49027998855286  2.66862787533543
102   -6.5305871038683  2.50009728821772
103  -6.57202686346808   2.3493709793006
104  -6.61541711844792  2.21213437759731
105  -6.66105208175317  2.08635029211031
106  -6.70897469002885  1.97081603942013
107  -6.75911555048371  1.86463222227457
108  -6.81140443412749  1.76695835103695
109  -6.86588373286639  1.67688512743302
110  -6.92280610009022  1.59340727137074
111  -6.98263826442646  1.51555168527845
112  -7.04586095498269  1.44268439553521
113  -7.11271185819422  1.37469471225671
114   -7.1843219718632  1.31084966389835
115  -7.27376039421604  1.24245221125687
116  -7.57047919405364  1.08670365505597
117  -8.26416140645792  1.05879277859702
118  -8.65079505225405  1.40253640262747
119  -8.78844980489712  1.93620719458175
120  -8.67226443561552  2.49088173110879
121    -8.391070512915  2.98886728602271
122  -7.67249518628415  3.73727286145736
123  -6.98453025288669  4.42565107156292
124  -6.33283848270487  5.21153853388952
125   -5.7289999177674  6.06690988608953
126   -5.0417672156838  6.86611754411158
127   -4.2238601204845  7.58722588218269
128  -3.26742629280002  8.10194843405444
129   -2.2373239239386  8.48347457089189
130  -1.17759323952145  8.64746891121192
131  -0.166139653185002  9.34106495950829
132  0.936104889488003   9.3068547362238
133   2.02136210681389  9.09575665672343
134   3.06426964795884  8.72009665929429
135   4.05654178512347  8.22224863293909
136   4.93439910987958  7.53788226940283
137   5.71127023293261  6.74369659584353
138   6.38550290199862  5.86404741640543
139   7.09996734016356  5.02427257160708
140   7.87301591283509  4.24172711931211
141   8.60283957483249  3.42007120240744
142   8.96151238614702  2.84962297185235
143   9.13566158222712  2.19995023486861
144     9.055610628485  1.52621789985663
145   8.86431646121122 0.867773662680529
146   9.14831850638424 0.221327538440106
147   9.19278382946778  -0.2112075239171
148   9.07771660405087 -0.569050235798563
149   8.87411022120948 -0.853416408216391
150   8.61905538547927 -1.07101558314739
151   8.33279317899913  -1.2277103798979
152   8.02807419696628 -1.32867043597232
153   7.71416832292677 -1.37895876424379
154   7.39824691644277 -1.38363862842566
155   7.08586540642078 -1.34748225904632
156   6.78132309071244 -1.27465635673812
157    6.4880432880784 -1.16860716899746
158   6.20890805223942 -1.03214554280744
159   5.94650056006549 -0.86764893228227
160   5.70326343381459 -0.677334745262103
161   5.48161955462723 -0.463672862342325
162    5.2841444440086 -0.230291325939956
163   5.11295105479404 0.0169847719981938
164   4.96553538430901 0.274786225991191
165   4.83835066084739 0.540405627355085
166   4.72824867159526 0.810509231974657
167    4.6320323407237  1.08195374808738
168   4.54642569945523  1.35205318673307
169   4.46816577851774  1.61862326690315
170   4.39412425084053  1.87994409809615
171   4.32142728309224  2.13469721970775
172   4.24755445073068  2.38190540787506
173   4.17040150147719  2.62089008346879
174   4.08829606951418   2.8512501024142
175   3.99996244361316  3.07285511005943
176   3.90444120440247  3.28583823493365
177   3.80098019955913  3.49056909798827
178   3.68892203948601  3.68759005757383
179   3.56761716131857  3.87750626276003
180   3.43638796409636  4.06083366941708
181   3.29455649378606  4.23782870652347
182   3.14152645791369  4.40834417314366
183   2.97688785096809   4.5717651891899
184   2.80050295187749  4.72706168716373
185   2.61254429392412  4.87295018602634
186   2.41348097986978  5.00811127584483
187   2.20403143832882  5.13139118041551
188   1.98510562285728  5.24193540995519
189   1.75774971290891  5.33924011281948
190    1.5230942575414  5.42313525928853
191   1.28230303343199  5.49372331600935
192   1.03652437069556  5.55129502032068
193  0.786851706413399  5.59623949481802
194  0.534300231133799  5.62896187775391
195   0.27980239233239  5.64981696297665
196  0.0242203445684301  5.65906217360733
197  -0.231629341672237  5.65682911464333
198  -0.486944114314412  5.64311123760777
199  -0.74090214801007  5.61776580794378
200  -0.992632242662432  5.58053034254051
201  -1.24119200050577  5.53105547923326
202  -1.48555940977628  5.46895642926974
203  -1.72464177963249  5.39388293057142
204  -1.95730272819573  5.30560327445192
205  -2.18240332531719  5.20409291252595
206  -2.39885038985489  5.08961361152726
207  -2.60564644181073  4.96276484353669
208   -2.8019410855517  4.82448481499404
209  -2.98708627402287  4.67597877215325
210  -3.16069179679963  4.51856670646678
211  -3.32266510221458  4.35347484570146
212  -3.47321291912053  4.18162985864304
213  -3.61279138374276  4.00352454301351
214  -3.74201466765706   3.8191966259862
215  -3.86155485695369  3.62831503363037
216  -3.97207222436539  3.43033114667434
217  -4.07420189541013  3.22464346134612
218  -4.16860066560939  3.01073743600653
219  -4.25603873252955  2.78828284643477
220  -4.33751089746977  2.55718820647099
221  -4.41434001340529  2.31762312383869
222  -4.48824997265294  2.07002544625664
223  -4.56139405783691  1.81511090542902
224  -4.63633444980457  1.55389863980271
225  -4.71597757187114  1.28775755727872
226  -4.80347626529326  1.01846805290434
227  -4.90211379075636 0.748282077534984
228  -5.01518946421295 0.479948358184736
229  -5.14594438423976  0.21663285668197
230  -5.29765581608217 -0.0384504842081443
231  -5.47410007526994 -0.282855749338015
232  -5.67655466747123 -0.512175022386844
233   -5.9026260372384 -0.720942561372011
234  -6.14991595423801 -0.905839162613764
235  -6.41610006971943 -1.06429416349495
236  -6.69877015186195 -1.19373920175188
237  -6.99527843220134 -1.29120981055018
238  -7.30250577907124 -1.35306839495925
239  -7.61652565047185   -1.374850666774
240  -7.93219679381985  -1.3513177096172
241  -8.24275716788024 -1.27673433933786
242  -8.53932097136779 -1.14515592646141
243  -8.80955283027206 -0.950287336928303
244  -9.03378542750757 -0.684696744733933
245  -9.17578086015447 -0.339050341328761
246  -9.16526737903123 0.0931764375383752
247  -8.93125672153314 0.758059045974779
248  -9.17397553763906  1.39647793497428
249  -9.30226788660545  2.05893862822332
250  -9.16563717760751  2.71373724492669
251  -8.83013912168764  3.29505345449311
252  -8.11505651906677  4.12752231338671
253   -7.3458109714069  4.91185760672913
254  -6.62812556680709  5.74608422461423
255   -5.9509275458524  6.61973372204012
256  -5.20146352360105  7.43502468941989
257  -4.35857686312689  8.15337949961932
258  -3.38591506764929  8.67464552550871
259  -2.35099749911258  9.05279313334445
260  -1.26370848084654  9.22949344417443
