// Id               X                Y
  1  -0.0718702898347613 0.146816886869578
  2  0.853368393036984 0.189756010141086
  3   1.76065146261367 0.359508724785504
  4   2.63578107565061 0.631788019910387
  5   3.47882315502047 0.970641300368586
  6   4.30315667854002  1.33179432124301
  7   5.13174781893045  1.66762056176857
  8   5.99233058882823  1.89590875804729
  9   6.87576900480154  1.88545381354373
 10   7.67510534507542  1.52936131907342
 11   8.23323228483573 0.846178958652274
 12   8.37010091445424 0.373350532329036
 13   8.35065360670768 -0.142614760673483
 14   8.10000751002785 -0.662217258540846
 15    7.4453890086225 -0.95529119815681
 16   7.70571159271884 -0.0915296669454129
 17   7.66964779270165 0.185111772546688
 18   7.54295176285728 0.380746743072681
 19   7.36279679740352 0.518071681478994
 20   7.15584338417024 0.602547368109775
 21   6.94409786441526 0.647048453776985
 22   6.75169161834598 0.664880319318491
 23   6.57232944759478 0.667761735201331
 24    6.3993142361226  0.66068162315332
 25   6.23073396247738 0.646000525815446
 26   6.06637469089704 0.625373151519407
 27   5.90576760931508 0.600220742625104
 28     5.747402158687 0.571669086180136
 29   5.59085395604113 0.540803793622469
 30   5.43578294476302 0.508526318557095
 31   5.28187826541435 0.475539881780573
 32   5.12886878781823 0.442370457245538
 33   4.97653143708854 0.409399432776772
 34   4.82469095285157 0.376896707183696
 35   4.67321408701013 0.345049489194578
 36   4.52200168689246 0.313985492449005
 37   4.37098085417831 0.283790759857782
 38   4.22009820870204 0.254522906372588
 39   4.06931455392414 0.226220676755815
 40   3.91860086888994 0.198910643761149
 41   3.76793540515206  0.17261174491745
 42   3.61730163960602 0.147338224011199
 43   3.46668685917364 0.123101425089475
 44   3.31608119530063 0.0999107871695747
 45   3.16547696879182 0.0777743062065551
 46   3.01486824225575 0.0566986648550663
 47    2.8642505068816 0.0366891775637921
 48   2.71362045292314 0.0177496562683687
 49   2.56297579022159 -0.000117731471083817
 50   2.41231509750218 -0.0169125661157263
 51   2.26163768801396 -0.032636215763279
 52   2.11094348515346 -0.0472918007928052
 53   1.96023290567067 -0.060884083274347
 54   1.80950675042807 -0.0734192881302428
 55   1.65876610390266 -0.0849048675441154
 56   1.50801224403839 -0.0953492224800236
 57   1.35724656395373 -0.104761395922188
 58   1.20647050660528 -0.113150752027818
 59   1.05568551296458 -0.12052665418676
 60  0.904892983696637 -0.126898153321032
 61  0.754094253805964 -0.132273695891032
 62  0.603290579279397 -0.13666085919912
 63  0.452483134418204 -0.140066119834956
 64  0.301673018313098 -0.142494659578491
 65  0.150861268759806 -0.143950211808458
 66  4.88818210978417e-05 -0.144434950460824
 67  -0.150763164806588 -0.143949422815945
 68  -0.301573886485699 -0.142492526814428
 69  -0.452382266262234 -0.140061533142832
 70  -0.603187231298878 -0.136652151914206
 71  -0.753987632990892 -0.13225864331483
 72  -0.904782232624498 -0.126873971019787
 73  -1.05556969439754 -0.120489996428166
 74  -1.20634858753881 -0.113097710781594
 75  -1.35711739911524 -0.104687500978823
 76  -1.50787455888522 -0.0952494433860732
 77  -1.65861847722753 -0.0847736182079378
 78  -1.80934759674415 -0.073250435112004
 79  -1.96006045761426 -0.0606709589279966
 80  -2.11075577620468 -0.0470272225613841
 81  -2.26143253588709 -0.0323125130234814
 82  -2.41209008858653 -0.0165216159989489
 83  -2.56272826544786 0.000348994974450954
 84  -2.71334749537234 0.0183010364049192
 85  -2.86394893132338 0.0373343671862002
 86  -3.01453458657743 0.0574470157252775
 87  -3.16510748693118 0.0786352718357216
 88  -3.31567185079269 0.100893818884251
 89  -3.46623331772815 0.124215862191372
 90  -3.61679925820315 0.148593184180496
 91  -3.76737921392599 0.174016024019558
 92  -3.91798554050734    0.200472638002
 93  -4.06863435321578 0.227948344795685
 94  -4.21934691300144 0.256423794642016
 95  -4.37015163239301 0.285872120954889
 96  -4.52108692347379 0.316254534013706
 97  -4.67220513732682 0.347513798548156
 98  -4.82357782230909 0.379564903913107
 99  -4.97530239351185  0.41228210405365
100  -5.12750995382054 0.445481421756262
101  -5.28037330369305 0.478897792569335
102  -5.43411304230629 0.512156523314245
103   -5.5889983843467  0.54474017178197
104  -5.74533954017343 0.575955206509077
105  -5.90347692501751 0.604909086198944
106  -6.06382786651322 0.630520162773351
107  -6.22781181685006 0.651653635259452
108  -6.39606885225005 0.666895740595227
109  -6.56871862084249 0.674567195449808
110  -6.74758931386995 0.672308713318176
111     -6.93876603573 0.655245938861473
112  -7.14978807765214 0.611646295047583
113  -7.35638292321025 0.528081965243443
114  -7.53641060922239 0.391706739539052
115   -7.6634157046934 0.196920788102352
116  -7.70034784084288 -0.079630524859721
117  -7.44668497672143 -0.944611808269917
118    -8.112596075275 -0.678316568887701
119  -8.37980503534225 -0.150421229345274
120   -8.4071459021875 0.365313105973538
121  -8.27889498914432 0.840437891891877
122  -7.73572328517571  1.53489223976059
123  -6.94447824971716  1.90595237296124
124  -6.06369563020506   1.9280805081702
125  -5.20550380393469  1.70537362136027
126  -4.38187984768391  1.37022440322264
127  -3.56549422942187  1.00629561642141
128  -2.73329091573041 0.661891871650985
129  -1.87130024227448 0.381741518397186
130  -0.978924457199748 0.202475074151614
131  -0.0440307031421842  0.75475754146641
132  0.845160205097417 0.808672734308951
133   1.72210652426333 0.979190777403588
134   2.58054889843095  1.25032325230983
135   3.42686838006507  1.58958295929818
136   4.28606149558032  1.95047550414902
137   5.23280149297687  2.27623990278787
138   6.29084807012711   2.4375903627952
139   7.36973198095478  2.25923691236656
140   8.27584242864932  1.61605397960557
141   8.68514735339219 0.576264311102176
142   8.58953009671154 -0.135973085159802
143   8.23240456773496 -0.774373657511214
144   7.68860181262825 -1.28327883155078
145   7.03333544466605   -1.705761200818
146   6.26956672519102 -2.12842604566778
147   6.11733900083168 -2.19376857043463
148   6.07714265507645 -2.20993234181988
149   6.03698881189811 -2.22566691013766
150    5.9951628718583 -2.24165849928261
151   5.94826883983922 -2.25914808014962
152   5.89435740446408 -2.27873528564149
153   5.83325499242632 -2.30032610526321
154   5.76495266063547 -2.32376640502947
155   5.68838387226214 -2.34925089235221
156   5.59699505687007 -2.37867141177327
157   5.48734078434435 -2.41268423235537
158   5.37077149985013 -2.44747226519093
159   5.24968418246305 -2.48227813657015
160   5.12521376896718 -2.51678835156685
161   4.99807476799327 -2.55083195666739
162   4.86876440107424 -2.58430204278958
163   4.73764277371924 -2.61712449855738
164   4.60497594618712 -2.64924294346203
165   4.47096348135777 -2.68061089759287
166   4.33575749627867 -2.71118768050027
167    4.1994761997583 -2.74093635068216
168   4.06221356466202 -2.76982277237591
169   3.92404622609727 -2.79781528830271
170   3.78503838613682 -2.82488469613709
171   3.64524529342958 -2.85100435506273
172   3.50471570912201 -2.87615032548028
173   3.36349365377509 -2.90030149055458
174   3.22161964460285 -2.92343963499745
175    3.0791315711408 -2.94554947169934
176   2.93606531416313 -2.96661861514319
177   2.79245518226922 -2.98663750479869
178   2.64833421922168 -3.00559928364751
179    2.5037344200701 -3.02349963768276
180   2.35868688340666 -3.04033660228363
181    2.2132219194481 -3.05611034114537
182   2.06736912812562 -3.07082290314368
183   1.92115745737436 -3.08447796222743
184    1.7746152489178 -3.09708054520609
185   1.62777027673825 -3.10863675213236
186   1.48064978189206 -3.11915347386613
187   1.33328050621138  -3.1286381113201
188   1.18568872661581 -3.13709830080781
189   1.03790029115489 -3.14454164981716
190  0.889940657455138 -3.15097548739828
191  0.741834933910464 -3.15640663316771
192  0.593607923700847 -3.16084118868133
193  0.445284171530806 -3.16428435461147
194  0.296888012830344 -3.16674027677825
195  0.148443625047304 -3.16821192363572
196  -2.49194256854406e-05 -3.16870099730698
197  -0.148493599208514 -3.16820787970858
198  -0.296938389334858 -3.16673161471631
199  -0.445335206678368 -3.16426992671352
200  -0.593659855986956  -3.1608192752454
201  -0.74188797709153  -3.1563749448903
202   -0.8899949938189 -3.15093116886841
203  -1.03795606508076 -3.14448128435018
204  -1.18574603852873 -3.13701791691592
205  -1.33333940705547 -3.12853319116218
206  -1.48071026827655 -3.11901896405901
207  -1.62783228693755 -3.10846707733802
208  -1.77467865994084 -3.09686962493449
209  -1.92122208335494 -3.08421923131348
210  -2.06743472032751  -3.0705093363686
211  -2.21328816822654 -3.05573448248052
212  -2.35875342252644 -3.03989059923829
213  -2.50380083385229 -3.02297528124069
214  -2.64840005308567 -3.00498805428126
215  -2.79251995736221 -2.98593062506123
216  -2.93612854694155 -2.96580710935495
217  -3.07919279900677 -2.94462423328054
218  -3.22167845903167 -2.92239150204081
219  -3.36354974283782 -2.89912133029257
220  -3.50476891196757  -2.8748291283644
221   -3.6452956702283 -2.84953333922225
222   -3.7850863083243 -2.82325542298144
223  -3.92409249366243 -2.79601978990522
224  -4.06225955991886 -2.76785369090435
225  -4.19952409078539  -2.7387870893197
226  -4.33581050824635 -2.70885256369737
227  -4.47102626041273 -2.67808533557645
228  -4.60505504831028 -2.64652359086103
229  -4.73774731975929 -2.61420938842623
230  -4.86890694985504 -2.58119066287461
231  -4.99827247959383  -2.5475252096759
232  -5.12548999589943 -2.51328829270998
233  -5.25007088778903 -2.47858726474872
234  -5.37131402723923 -2.44359175691678
235  -5.48811229238859  -2.4086086527058
236  -5.59817627795734 -2.37436188555577
237  -5.69073870119309 -2.34447903001479
238  -5.76766632908384  -2.3188071938298
239  -5.83619754792698 -2.29523310843603
240   -5.8974676187416 -2.27353863124374
241  -5.95154048868376 -2.25385779557539
242    -5.998550765017 -2.23629724351425
243  -6.04049544714332  -2.2202385422998
244  -6.08078357083768 -2.20443166478241
245  -6.12112712231487  -2.1881911842118
246  -6.27349941866823 -2.12274142302665
247  -7.03823979483856 -1.70068852882446
248  -7.69444624987585 -1.28593876062398
249  -8.24623947733328 -0.783639758765046
250  -8.61479602427907 -0.150302609337667
251  -8.72432223878059 0.561069379148347
252  -8.33708370696779  1.61011213854809
253  -7.44397574206806  2.27169579157749
254  -6.36753669493001  2.46639214319845
255  -5.30774275120602  2.31341965477967
256   -4.3603918357099  1.98857498254597
257  -3.50333467709774  1.62428392112894
258  -2.66046654311312  1.27868016112398
259   -1.8055445931735 0.999169589562125
260  -0.930906669467237 0.818903875052694
