// Id               X                Y
  1  -0.10277740819484  3.83410489049494
  2  0.827683772303888   3.7960448048115
  3   1.76400088111381  3.67281907504928
  4   2.70955202783412  3.46208891686743
  5   3.62220771380574  3.18838839714994
  6   4.48143036907157  2.87224941102858
  7   5.35292588951615  2.59252852494766
  8   6.23637722330851  2.35538251230896
  9   7.12287323951082   2.1438653334799
 10    8.0012479250758   1.9219419761546
 11   8.85864226784826  1.63027293274226
 12   9.31446463518251  1.37320131832854
 13   9.71097399046922  1.00818493345888
 14   9.96166473009916 0.439941906027605
 15   9.81925161442188 -0.106415575888742
 16   9.12984498346936 -0.344503354557104
 17   8.62147135456217 -0.23940143163028
 18   8.52356136976537 -0.205084935786224
 19    8.4648287786701 -0.182278064476163
 20   8.40769862677196 -0.158523540700501
 21    8.3501011916921 -0.133000853749896
 22   8.28547963442993 -0.102537677139017
 23   8.20902526234061 -0.0640221963490961
 24   8.11906717595506 -0.0153713081468019
 25   8.01608598063415 0.0445755608159255
 26   7.90160697097085 0.116243680274867
 27   7.77747651600141 0.199467676643501
 28    7.6455049559711 0.293566874143403
 29   7.50738619688622 0.397354371050736
 30   7.36469712025849 0.509170638166667
 31   7.21869096474196 0.627157665626991
 32   7.06999551064103  0.74968311755162
 33   6.91867070676143 0.875468339525424
 34   6.76446482436715  1.00348458624757
 35   6.60697881549661  1.13287080569715
 36   6.44574685558524   1.2628935787304
 37   6.28028669209249  1.39291801247684
 38   6.11013977230308  1.52238041998192
 39   5.93490720161821  1.65076296604888
 40   5.75428223944995   1.7775729445383
 41   5.56807688692454  1.90232966034581
 42   5.37623890856067  2.02456055884523
 43   5.17885654585471   2.1438058933361
 44   4.97615053163712  2.25962902933738
 45   4.76845554011761  2.37162847141281
 46   4.55619487174033  2.47944809989923
 47    4.3398526058981  2.58278343411295
 48   4.11994687794018  2.68138326820864
 49   3.89700682786978  2.77504721635478
 50   3.67155456886035  2.86362035322063
 51   3.44409249546023  2.94698630727967
 52   3.21509546240978  3.02506003830689
 53   2.98500675305093  3.09778128114221
 54   2.75423622130652  3.16510936879798
 55   2.52315850657749  3.22701987332159
 56   2.29210895901649  3.28350316175854
 57   2.06137532889491  3.33456447581568
 58   1.83118497197009  3.38022451778442
 59   1.60169044867533   3.4205190086172
 60   1.37295967622514  3.45549577320217
 61   1.14497743106516  3.48520897745646
 62  0.917660954104266  3.50971180745875
 63  0.690885553608867  3.52904995961431
 64  0.464511426928317  3.54325790437276
 65  0.238403502072048  3.55235837038486
 66  0.0124403973176292  3.55636403875287
 67  -0.213486836248167  3.55527981533113
 68  -0.439482633927343  3.54910426222826
 69  -0.665656699944933  3.53782945831502
 70  -0.892130585305443  3.52143941672337
 71  -1.11903647864865  3.49990802118967
 72  -1.34650535240542   3.4731980233542
 73  -1.57464515546093  3.44126261232855
 74  -1.80351450438989  3.40405013677391
 75  -2.03310062089634  3.36151098887651
 76  -2.26330897069427  3.31360445031581
 77  -2.49396626417916  3.26030343853974
 78  -2.72483236610046  3.20159646691591
 79  -2.95561436878306  3.13748762963406
 80  -3.18597787575137  3.06799611051507
 81  -3.41555384780216  2.99315653742024
 82  -3.64394191057257  2.91302092709791
 83  -3.87071215107575  2.82766240143261
 84   -4.0954075218314  2.73718045526281
 85  -4.31754859223299  2.64170728772361
 86  -4.53664188841989  2.54141449638086
 87  -4.75219254869588  2.43651923518626
 88  -4.96372145093027  2.32728877917862
 89  -5.17078626632629    2.214042412595
 90  -5.37300503510991  2.09714979428274
 91  -5.57007992815334  1.97702556818769
 92  -5.76181807404405  1.85412098119474
 93  -5.94814601505173  1.72891444851109
 94  -6.12911480820746  1.60190394961555
 95  -6.30489408783107  1.47360434022804
 96   -6.4757552201152  1.34455183229955
 97  -6.64204525109985  1.21531623859167
 98  -6.80415377726742  1.08651984970854
 99  -6.96247351322443 0.958860953743768
100  -7.11735154949131 0.833141036801123
101  -7.26901716986679 0.710301640942489
102  -7.41743713639585 0.591501241338546
103  -7.56206893946272 0.478235444748192
104  -7.70178420314496 0.372261586010127
105  -7.83514876107605 0.275219267156811
106  -7.96061696878554 0.188366546673988
107  -8.07653910188761 0.112526205499177
108  -8.18123737121947 0.0480547461034974
109   -8.2733312973379 -0.00525641474259584
110  -8.35242517721524 -0.0483691029566224
111   -8.4202074295204 -0.0832806477179229
112  -8.48157903616568 -0.113231141434531
113  -8.54357872469931 -0.141858698179155
114  -8.60885553281314 -0.170199566304347
115  -8.72381663615964 -0.215577736858757
116  -9.23195854975422 -0.34723796055021
117   -9.9391765602331 -0.158309363160353
118  -10.1239480922871 0.363985230291689
119   -9.9329127367586 0.934690749840515
120  -9.57052875310361  1.32727981475266
121  -9.13513579683905  1.61000367425279
122  -8.29189213876922  1.92929898071706
123   -7.4189747868922  2.15564758555575
124  -6.53323260431327  2.35444466533412
125  -5.64643926295504  2.57005293101622
126  -4.76733322584936  2.82670324208886
127  -3.89948569383321  3.12627935211891
128  -3.03197926725936  3.42760554063009
129   -2.1291660232901  3.64571415293864
130  -1.12068255444994  3.75770794160166
131  -0.126057570924028  4.42179651535816
132  0.855461857414015  4.38728959848445
133   1.82094290790626  4.25966406326949
134   2.76703525504229  4.04892568998906
135    3.6996104544418  3.77463625745525
136    4.6200193558901  3.47142476171699
137    5.5304200573062  3.18557187397865
138     6.450536337089  2.93633149284844
139   7.39393145125181  2.69994043383195
140   8.39780406886612  2.39184374867335
141   9.34362674178855  1.89783343581886
142   9.84151645127469  1.44552647427571
143   10.2226854729672 0.899450721869571
144   10.4518326486682 0.384180366262642
145   10.5979073539992 -0.104481235759139
146   10.7459081730316 -0.755613579525894
147   10.7357599998841 -1.86076174933744
148    10.530453187856  -2.2628769850791
149   10.2518997112134 -2.57689325033244
150     9.927487979567 -2.80856275857754
151   9.57430763929606 -2.96639008159286
152   9.20978838281002 -3.05709795905477
153   8.84927188571233 -3.08990957860412
154   8.50273582387922 -3.07594502816903
155   8.17495169640408  -3.0259436362826
156   7.86718894851041 -2.94897756390295
157   7.57880506419386 -2.85221794319849
158   7.30822863503005 -2.74116149944504
159   7.05340429528273 -2.61990968382952
160   6.81199861489886  -2.4914024117655
161   6.58174417879636 -2.35775683536157
162   6.36084862355092 -2.22070680730211
163     6.148009750445 -2.08181614503503
164   5.94220936432961 -1.94247656584703
165   5.74259129208783 -1.80389179371671
166   5.54841659293126 -1.66708428860763
167   5.35904124024156 -1.53290689215946
168   5.17389688390724 -1.40205246899945
169   4.99246973446976 -1.27506099147137
170    4.8142777314105 -1.15232600407351
171   4.63884884128577 -1.03410351755455
172    4.4657041772041 -0.920525985278008
173   4.29434870812356 -0.811622293505424
174   4.12427036102852 -0.707342579832474
175   3.95494636390106 -0.607585201499829
176   3.78585446523367 -0.512222777229881
177   3.61648635096482 -0.421124756760402
178   3.44636091340039 -0.334174960836188
179   3.27503565691216 -0.251283549801412
180   3.10211519373702 -0.17239368237913
181   2.92725638030681 -0.097483658228837
182   2.75017017776351 -0.0265656379121884
183   2.57062085473133 0.0403178357118621
184   2.38842374168714 0.103098293440863
185   2.20344335715448 0.161685700463943
186   2.01559412091816 0.215972002527519
187   1.82484554507384 0.265833752321195
188   1.63123212852273 0.311134522046165
189   1.43486505444387 0.351728480256427
190   1.23593953367525 0.387466446373922
191    1.0347310831157 0.418204532110651
192  0.831578172096765 0.443813651985495
193  0.626855546687599 0.464187139328956
194  0.420947123516355 0.479244411199901
195  0.214226626354711 0.488930528246858
196  0.00704973608640466 0.493213184533461
197  -0.200243091102353  0.49207928233808
198  -0.407316885286862 0.485532880046641
199  -0.613830494744426 0.473595412261645
200  -0.819428247318667  0.45630802323359
201  -1.02373971481116 0.433734822507724
202  -1.22639062561798 0.405965105515834
203  -1.42702439855863 0.373112505971231
204  -1.62532894366551 0.335310054849446
205  -1.82105996352159 0.292701984610802
206  -2.01405315751921 0.245434692231081
207  -2.20422347506308  0.19364933715828
208  -2.39155572973398 0.137477119589385
209  -2.57609327496021 0.0770366182905045
210  -2.75792970698157 0.0124317939347871
211  -2.93720526084534 -0.0562504922831625
212  -3.11410701748887 -0.128943861383199
213  -3.28887095133818 -0.205606400501056
214  -3.46178384674805 -0.286224465905992
215  -3.63318360561076 -0.370815280081181
216  -3.80345706136895 -0.459427227335444
217  -3.97303495057098 -0.552136804837819
218  -4.14238416538968 -0.649041354427199
219  -4.31199786841857 -0.750247013280674
220    -4.482384535227 -0.855851816801517
221   -4.6540574878766 -0.965924573045565
222  -4.82752689601563 -1.08048092999182
223  -5.00329636401959 -1.19945877329398
224   -5.1818658729965 -1.32269540685685
225  -5.36374189149147  -1.4499085747318
226  -5.54945408087246  -1.5806822098549
227  -5.73957674457509 -1.71445619931716
228  -5.93475276375254 -1.85051814693023
229  -6.13571889558987 -1.98799477220355
230  -6.34333483485144 -2.12584167499804
231  -6.55862970579697 -2.26283508846907
232  -6.78291606697134 -2.39758384116471
233  -7.01800130550131  -2.5285438434063
234  -7.26620925330692 -2.65383246315394
235  -7.53000718996565  -2.7707923437639
236  -7.81168249848432  -2.8756313945621
237  -8.11313820635791 -2.96315714371399
238   -8.4354680754272 -3.02646632370792
239  -8.77802842434279 -3.05666622146086
240  -9.13689227268971 -3.04299682104201
241  -9.50307385051151  -2.9739603105568
242  -9.86209631607861 -2.83958914834092
243  -10.1971596522259  -2.6324620054251
244  -10.4925856065194 -2.34343191166743
245  -10.7208937474836 -1.96966432441299
246   -10.815663585098 -0.870043495821714
247  -10.7193044445431 -0.210175898519378
248  -10.6136811902815  0.28808674245476
249  -10.4323455670424 0.805039802255173
250  -10.0949789415497  1.37527346060958
251  -9.62582318011184  1.85698495050203
252  -8.70060566393324  2.38771781470464
253  -7.69820696740044  2.70751776359961
254  -6.74744302846038  2.93510639537554
255  -5.82129379280061  3.16379453545204
256  -4.90603005351173  3.42871147944106
257  -3.98333457142579  3.72393809044859
258  -3.00629400962823   4.0133360884596
259  -2.04046061583487  4.22966535639855
260   -1.0865739749972  4.36494522777664
