// Id               X                Y
  1  -0.103089146126666  3.84696408592835
  2  0.828902961371263  3.80908357229462
  3   1.76673666964328  3.68589332672359
  4    2.7136435157869  3.47506150065012
  5    3.6231584403059  3.20434762966858
  6    4.4793880135201   2.8845815842501
  7   5.34750060372217  2.59967757170457
  8   6.22801975879357  2.35680438269738
  9   7.11228655659421  2.14008947433495
 10   7.98923508467576  1.91510923459271
 11   8.84559234272052  1.62531427789372
 12   9.29200472271047     1.38434698739
 13   9.69418514637276  1.04526629880895
 14   9.98362358195518 0.514885215441438
 15    9.8701254900503 -0.131900447447416
 16   9.15090819433603 -0.364239491225243
 17   8.64442549897463 -0.250114439375223
 18   8.54574106850756 -0.214011145457651
 19   8.48638713343217 -0.190075314640917
 20   8.42901952941811 -0.165384268112532
 21   8.37133839173644 -0.139007083766401
 22   8.30657889133615 -0.10759529652355
 23   8.22991066408379 -0.0679689910401488
 24   8.13969601005302 -0.0180603103752709
 25   8.03644237173407 0.0432414191438987
 26   7.92168108086113 0.116303462839154
 27   7.79725142863438 0.200906325412378
 28   7.66495782309997 0.296319135963461
 29   7.52650163742343 0.401304028565575
 30   7.38346909160225 0.514161361098077
 31   7.23708775510751 0.633038629291652
 32   7.08794338849454 0.756341614314345
 33   6.93607697099173 0.882822465768305
 34   6.78123752116046  1.01147078835908
 35   6.62303507302946   1.1414373216912
 36   6.46101698250535   1.2719961314175
 37   6.29471708700035  1.40251620575517
 38   6.12369529015646  1.53243481777086
 39    5.9475728452429  1.66123315833058
 40   5.76606372026038  1.78841686889055
 41   5.57899960696956  1.91350419616805
 42   5.38634522223407  2.03602306732643
 43    5.1882015935892  2.15551612801181
 44   4.98479727758416  2.27155081927483
 45   4.77646975855267  2.38373076582955
 46   4.56364071855208  2.49170523830107
 47   4.34678917632337  2.59517474270371
 48   4.12642589655014  2.69389221427603
 49   3.90307141341741  2.78766037661202
 50   3.67723889141038  2.87632640609618
 51   3.44942208997066  2.95977518524323
 52   3.22008796107927  3.03792230469355
 53   2.98967282782733  3.11070774057616
 54   2.75858057504472  3.17809088298257
 55   2.52718081200179  3.24004733065788
 56   2.29580471756622  3.29656753625703
 57   2.06473669714547  3.34765690872454
 58    1.8342016521221   3.3933363692857
 59   1.60435071819984  3.43364185938631
 60   1.37525152441402   3.4686213957411
 61   1.14688963776181  3.49832931994628
 62  0.919183897977334  3.52281902051734
 63  0.692011619958202  3.54213646021784
 64  0.465235029113807  3.55631644150308
 65  0.238720838846631  3.56538205183795
 66  0.0123491055529313  3.56934629406854
 67  -0.21398798790666  3.56821429329729
 68  -0.440393902158397  3.56198468320588
 69  -0.666977312019571  3.55064945687157
 70  -0.893858461678433  3.53419241645806
 71  -1.12116778492547  3.51258717924773
 72  -1.34903401111467  3.48579626449776
 73  -1.57756252487534  3.45377274144831
 74  -1.80680945016382  3.41646498446205
 75  -2.03676010382198  3.37382353019516
 76  -2.26731907519531  3.32580785969922
 77  -2.49831343552977  3.27239108899947
 78  -2.72950462575555  3.21356191043714
 79  -2.96060240219255  3.14932458645154
 80  -3.19127601188711  3.07969846142222
 81  -3.42116099684581  3.00471828095804
 82  -3.64986250026131  2.92443604636216
 83  -3.87695704185733   2.8389245841649
 84   -4.1019948169781  2.74828262269826
 85  -4.32450420524841  2.65264091135023
 86  -4.54399969176927  2.55216871877785
 87  -4.75999391095708  2.44707986214483
 88  -4.97201398422744   2.3376372708044
 89  -5.17962166571446  2.22415505714283
 90  -5.38243600655997  2.10699727562993
 91  -5.58015636884298  1.98657310630655
 92  -5.77258286112031  1.86332911371742
 93  -5.95963092256773  1.73774033884009
 94  -6.14133713605612  1.61030290584526
 95  -6.31785449637167  1.48153109782498
 96  -6.48943702421683  1.35196117190694
 97  -6.65641512663391  1.22216268904341
 98  -6.81916361870786   1.0927564797746
 99  -6.97806319095206 0.964437441158013
100  -7.13345271456019 0.838001129119513
101  -7.28555999215758 0.714379033372848
102  -7.43436665717773 0.594709808441141
103  -7.57936867865843 0.480458868767322
104  -7.71946323501006 0.373378297199077
105  -7.85319772194296 0.275150007475769
106  -7.97900378359272 0.187084669627164
107  -8.09522877179434 0.110047248214079
108  -8.20020290662099 0.0444309022091599
109  -8.29254913395372 -0.00993668374255108
110  -8.37185803438545 -0.0539848904045898
111  -8.43978571178049 -0.0896980057451255
112  -8.50120718480601 -0.120351085952776
113  -8.56320970730366 -0.149686277601298
114  -8.62851706241324 -0.178807856154783
115  -8.74266508441611 -0.225283563648425
116  -9.24849523646401 -0.363893252620508
117  -9.98396720722374 -0.177733265719202
118  -10.1435544511511  0.44540919190199
119  -9.92119817473777  0.96754195829874
120  -9.55161631788153  1.33749726941144
121  -9.12344199191381  1.60478149218233
122  -8.27825038800692   1.9221488565019
123  -7.40279369364884  2.15064374725047
124  -6.51350608262478  2.35368033449548
125  -5.62157249695859  2.57448666083516
126  -4.73544853019285  2.83630062497815
127  -3.86009256368509  3.13845314949374
128  -2.96578928018016  3.44927974359464
129  -2.05378096768413  3.67334029131778
130   -1.1014659137814  3.77961252433277
131  -0.126601960256797  4.43858050517435
132  0.849543346013444  4.40100511686755
133     1.813702421772  4.27350802586539
134   2.75989877320548  4.06388118333208
135    3.6925479555946  3.79036640478981
136   4.61373268131335  3.48436320049031
137   5.52274750814451  3.19335746111817
138   6.44022820001364  2.93848596096562
139   7.37758065616648  2.69894110310087
140   8.37814132392192  2.39231081772491
141   9.32733726314774  1.90688398962775
142   9.83010564562018  1.46058072157268
143   10.2179205825151 0.917869646197982
144   10.4722849164312 0.346054894683865
145   10.6166448469402 -0.140624196948236
146   10.7612827985223 -0.792545503652547
147   10.7406122813377 -1.89507987788368
148   10.5313186071075 -2.29403879066547
149   10.2496063233152 -2.60429644258694
150   9.92270972136888 -2.83189947582571
151   9.56765763407257 -2.98543083736749
152   9.20201134897199 -3.07174455297049
153   8.84112477816582 -3.10030317608368
154   8.49485672873183 -3.08242593259438
155   8.16781878115923  -3.0289603344838
156   7.86113467686772 -2.94901487416675
157   7.57404174728524 -2.84975276325165
158   7.30486504140766 -2.73663334496738
159   7.05145127926749  -2.6136956423636
160   6.81138753093997 -2.48380535645124
161   6.58238348119889 -2.34902849049966
162   6.36265884857115   -2.211073764399
163   6.15091410489573 -2.07147999136852
164   5.94612467142914 -1.93160921405166
165   5.74742811611185 -1.79263519960047
166   5.55408145573997 -1.65555204290456
167   5.36543812782877 -1.52118613233281
168   5.18092771329067 -1.39020581780331
169   5.00003417789224 -1.26312869870923
170   4.82227303989268 -1.14032862113799
171   4.64717025231235 -1.02204532612467
172   4.47424619622825 -0.908399111555363
173   4.30300718133783 -0.799411144603073
174   4.13294498525609 -0.695028097272852
175   3.96354319295867 -0.595148477859484
176   3.79428804302277 -0.499647758035593
177   3.62468124800496 -0.408399951902163
178   3.45425259155956 -0.321294248827588
179   3.28257069782965 -0.238246250384114
180   3.10925099263629 -0.159204105876855
181    2.9339604378195 -0.0841503330277065
182   2.75641913034794 -0.0131003884318539
183   2.57639937731421 0.0539008273053926
184   2.39372343588736 0.116783351390588
185   2.20826170158894 0.175456398042114
186   2.01993350420901 0.229811774527915
187   1.82871233631394 0.279726395910183
188    1.6346356950825  0.32506461015055
189   1.43781665847864 0.365681692398566
190   1.23845114355421 0.401429791707885
191   1.03681426430292 0.432166428205851
192  0.833243265724938 0.457763849358911
193   0.62811125934002 0.478116528812172
194  0.421800508160084 0.493144782656044
195  0.214683327825568 0.502794347016474
196  0.00711433862038588 0.507033425647494
197  -0.200566762068202 0.505849329714583
198  -0.408025616867443  0.49924647007161
199  -0.614921759064932 0.487246582717426
200  -0.820900503106076 0.469891020970098
201  -1.02559288484138 0.447243928701501
202  -1.22862661757891 0.419394359814909
203  -1.42964745854492 0.386455351935717
204  -1.62834560998268 0.348558977375478
205  -1.82447848733865 0.305848235895169
206  -2.01788245435747 0.258468180773305
207  -2.20847183110231 0.206558697770269
208  -2.39622949199428 0.150249937361045
209  -2.58119563533004 0.0896597743990831
210  -2.76345956818651 0.0248919226341143
211  -2.94315612477284 -0.0439664280393124
212   -3.1204658579022 -0.116847870194806
213  -3.29561708414377 -0.193708654808187
214  -3.46888786027118 -0.274532436066207
215  -3.64060644806451 -0.359332898172811
216  -3.81114940140307 -0.448154206047153
217  -3.98093693049161 -0.541068268650973
218  -4.15042565407906 -0.638167959986572
219  -4.32009928750147 -0.739555733539981
220  -4.49045827156186 -0.845327526582852
221  -4.66200981586922 -0.955552490852284
222  -4.83526022451534 -1.07024984151117
223  -5.01071152434502 -1.18936480750568
224   -5.1888641252485 -1.31274600560333
225  -5.37022639403159 -1.44012625567864
226  -5.55533075463239 -1.57110781246173
227  -5.74475471305379 -1.70515149727507
228  -5.93914474293835  -1.8415679062616
229  -6.13924191312905 -1.97950840451341
230  -6.34591128439796 -2.11795445230194
231  -6.56018696770862 -2.25570795770863
232  -6.78337792902973 -2.39139894408107
233  -7.01727388064921 -2.52350110788994
234   -7.2642076269077 -2.65017231295588
235  -7.52671756541236 -2.76882572389491
236  -7.80718517372583 -2.87573270158197
237  -8.10760674277664 -2.96573800516409
238  -8.42917837985831 -3.03194707448221
239  -8.77138168542601 -3.06543784044485
240  -9.13043778651305 -3.05535865004898
241  -9.49749696300305 -2.99002955821553
242  -9.85813218141027 -2.85922111517303
243  -10.1954730273056 -2.65525907094076
244  -10.4937982183986 -2.36875789366181
245  -10.7256209659181  -1.9961444248878
246  -10.8268287714712 -0.895879716579157
247  -10.7315149152935 -0.235402175134063
248  -10.6258181463743  0.26006601295071
249  -10.4330405508384   0.8071490102131
250  -10.0905582275359  1.37687990967398
251  -9.61740552360122  1.85541909791185
252  -8.68837100083312  2.38073262822758
253  -7.68687034579021  2.70007150938515
254  -6.73763771960159  2.93046728074553
255  -5.81168284341392  3.16322009673916
256  -4.89701257528635  3.43267332515658
257  -3.97777857638652  3.73419568851844
258  -3.00288108815094   4.0341919552214
259  -2.03739701228504  4.25818930990231
260  -1.08504384197732  4.38911719110862
