// Id               X                Y
  1  -0.0789409246851725 0.544104798968176
  2  0.861365730065854 0.549691208337956
  3   1.80406137596312 0.565484233905567
  4   2.71997445200794 0.591560966326941
  5   3.62549293377838 0.725553204731397
  6   4.50218983459987 0.987662458849965
  7   5.33467760558806  1.35612303190068
  8   6.13207077134137   1.7786222240053
  9   6.93193714085396  2.18322078677905
 10   7.78122129247155   2.4389138999971
 11   8.66763159207806  2.39053745052474
 12    9.0958246594473  2.15670823660481
 13    9.4139943187651  1.76148803704369
 14   9.50158798202754   1.2284998565977
 15   9.25807424716861 0.764947463651077
 16   8.55259933891846 0.573839464368823
 17   8.27595367416239 0.552887177291746
 18   8.06351095591142 0.537413221908493
 19   7.87101728639635 0.522071764708278
 20   7.68708462198356 0.506130267394798
 21   7.51335402704544 0.490096464671687
 22   7.35244229679066 0.474703819089439
 23   7.19992823445044 0.459984150095502
 24   7.04704306082977 0.445449749885904
 25    6.8883377625449 0.430924319246988
 26   6.72271179687566 0.416659056548599
 27   6.55101298963858 0.403042976251842
 28   6.37459598203273 0.390414678740041
 29   6.19479648254301 0.378995096021623
 30    6.0127738277438 0.368881819418104
 31    5.8294805230906 0.360069546464722
 32   5.64567446742451 0.352478528914999
 33   5.46194493907359  0.34598209329204
 34   5.27874146884437 0.340429395170546
 35   5.09640112174735 0.335662406038029
 36   4.91517249566079 0.331527563536527
 37   4.73523558004374 0.327883073200466
 38   4.55671742253389 0.324602953763277
 39   4.37970405459209 0.321578794485157
 40   4.20424900198634 0.318719987009411
 41   4.03037913028339 0.315953002559095
 42   3.85809847943012 0.313220116228898
 43   3.68739047529568 0.310477849680346
 44   3.51821926065249 0.307695318335149
 45   3.35053053732041 0.304852600587365
 46   3.18425221731367 0.301939202063934
 47   3.01929553813211 0.298952665115926
 48   2.85555681168325 0.295897345791635
 49    2.6929199702221 0.292783365065903
 50   2.53126024437381 0.289625732421569
 51   2.37044862553987 0.286443616266985
 52   2.21035676725977 0.283259725643877
 53   2.05086209245595 0.280099763381643
 54   1.89185231594718 0.276991897253007
 55   1.73322890471692 0.273966205274136
 56   1.57490933396818 0.271054067391349
 57   1.41682771041143 0.268287483991183
 58   1.25893385860245 0.265698328210353
 59   1.10119127292315 0.263317558845144
 60  0.943574042204491 0.261174425749861
 61  0.786063302089383 0.259295711918249
 62  0.628643837698567 0.257705053222293
 63  0.471301059520727 0.256422362352615
 64  0.314018858291615   0.2554633750885
 65  0.156778646026606 0.254839320207408
 66  -0.000440608098745051 0.254556700939555
 67  -0.157661410084603 0.254617173708514
 68  -0.314906194842481 0.255017510110887
 69  -0.472195877986303 0.255749636836924
 70  -0.629548877735574 0.256800759348879
 71  -0.786980990489926 0.258153582370174
 72   -0.9445064567247  0.25978664405305
 73  -1.10214005976617 0.261674773873465
 74  -1.25990004027151 0.263789673009709
 75  -1.41781159156331 0.266100603795362
 76  -1.57591031372313 0.268575157726925
 77  -1.73424514631338 0.271180063892691
 78  -1.89288051582784 0.273882001295853
 79  -2.05189716531915 0.276648379052887
 80  -2.21139141842414 0.279448063590419
 81  -2.37147310646526 0.282252055773565
 82  -2.53226212055313 0.285034132332313
 83  -2.69388392787867 0.287771486330247
 84  -2.85646475558038 0.290445416673221
 85  -3.02012682213883 0.293042113180052
 86  -3.18498393836902 0.295553579596099
 87  -3.35113820181275 0.297978734865595
 88  -3.51867729490721 0.300324702615331
 89  -3.68767270394695 0.302608299339507
 90  -3.85817831958901 0.304857703853766
 91  -4.03022939448006 0.307114279198875
 92   -4.2038407046849 0.309434476463383
 93  -4.37900546969551 0.311891747169067
 94  -4.55569241952572 0.314578281775628
 95   -4.7338433473914 0.317606387759254
 96  -4.91336744231922 0.321109137389672
 97  -5.09413385848168    0.325239854983
 98  -5.27595733194839 0.330169696696957
 99  -5.45858010519391 0.336082485778331
100  -5.64164613348796 0.343165554973121
101  -5.82467485014784 0.351595556649217
102   -6.0070338118758 0.361518276158616
103  -6.18791916206591 0.373022813738268
104   -6.3663535534505 0.386112747172492
105  -6.54123546680999 0.400682280254835
106  -6.71152991135057 0.416516259025075
107  -6.87684651285305 0.433356433636745
108  -7.03891811123482 0.451113595227373
109  -7.20394323965747 0.470239457963978
110   -7.3817631451379 0.491741949020052
111  -7.57915781343971 0.516402866691285
112  -7.79788408905639 0.544595062999906
113  -8.03934899437752 0.577174533921073
114  -8.30418792542119 0.616058423194006
115   -8.5747019806118 0.662971447703487
116   -8.5747021448087 0.662971481528849
117  -9.25874267724289 0.862592572699487
118  -9.51923335272986  1.30469210275607
119  -9.47189985433885  1.83033401168799
120  -9.18423656695651  2.24425876785736
121   -8.7706747184639  2.50002922649481
122   -7.8866022724429  2.57079361743967
123  -7.03959678754258  2.31116630436922
124  -6.25110705364658  1.88551312172129
125   -5.4695989986613  1.43747071601219
126  -4.65231400014285  1.04066685064979
127  -3.78610336981241 0.750796466991578
128  -2.88448291739261 0.595218476327619
129  -1.96735786033741 0.564490533563313
130  -1.02323528659775 0.518829230040155
131  -0.0628621923744543  1.12751092033225
132  0.840009760113388  1.13520032220452
133   1.74291124746836  1.14934183420802
134   2.64490417030987  1.20079025835635
135   3.53664620596224  1.33947163139053
136   4.40362001883588  1.60040114534617
137   5.24055491256873  1.96988746461555
138   6.07380059639113  2.39451102708973
139   7.01146977079218  2.79821587937647
140   8.07128799274645  2.97916917928958
141   9.10938076922596  2.67815708786676
142   9.60578342521406  2.20176091153443
143   9.88847543309308  1.58722756058953
144   9.97514245237386 0.989538618254356
145   9.96830187322606 0.457733824594223
146   9.91741463160991 -0.24111773127129
147   9.50415084228625 -1.76887165649762
148   9.29412457073057 -1.97880277648176
149   9.09473744852065 -2.12855979129985
150   8.89231540499324 -2.24758670382633
151   8.68281389740974 -2.34495077090257
152   8.46179068535047 -2.42572728061617
153   8.23223456023699 -2.49093122831471
154   8.00297805815747 -2.54107639413607
155   7.78036680992072 -2.57845001967481
156   7.56623413750268 -2.60606218869834
157   7.36003506712152 -2.62652902037169
158   7.16041149908653 -2.64182699090843
159   6.96587696777723 -2.65338974512027
160   6.77508019420433 -2.66225504638609
161   6.58689151635009 -2.66918530770839
162   6.40041379375485 -2.67475303009904
163   6.21496099241722 -2.67939799093099
164   6.03002473321711 -2.68346448092783
165   5.84523884550417 -2.68722526346373
166   5.66034658864036 -2.69089702956709
167   5.47517290561848 -2.69465056340228
168   5.28960233467571   -2.698617707892
169   5.10356219042952 -2.70289644147171
170   4.91701058257755 -2.70755485183892
171   4.72992825210336 -2.71263447266259
172   4.54231331320596 -2.71815324972626
173   4.35417832108536  -2.7241082813312
174   4.16554869554464 -2.73047842834935
175   3.97646197652136 -2.73722684749898
176   3.78696751844238 -2.74430347861405
177   3.59712583636986 -2.75164751904827
178   3.40700739217151 -2.75918988666154
179   3.21669061408446 -2.76685565590953
180   3.02625874429028 -2.77456644364665
181   2.83579587822411 -2.78224267570452
182   2.64538254159267 -2.78980565662932
183   2.45509101738861 -2.79717937264545
184   2.26498126375675 -2.80429194679363
185   2.07509791445402 -2.81107670560663
186   1.88546848904915 -2.81747286182549
187   1.69610327676096 -2.82342583584276
188   1.50699678160337 -2.82888728549658
189   1.31813028328052  -2.8338149363759
190   1.12947540624528 -2.83817229480329
191  0.940998090016993  -2.8419283315088
192  0.752662280016132 -2.84505720329393
193   0.56443310632366 -2.84753804563581
194   0.37627900126225 -2.84935485274243
195   0.18817242934338 -2.85049643360313
196  8.94605021656979e-05  -2.8509564135612
197  -0.187991727099521 -2.85073325168408
198  -0.376093005078426 -2.84983024723246
199  -0.564238343054003 -2.84825552535879
200  -0.752455317283888  -2.8460220120717
201  -0.940775636096328 -2.84314742229161
202  -1.12923428960936 -2.83965429461758
203  -1.31786748303231 -2.83557009832443
204  -1.50670957937979 -2.83092742238141
205  -1.69578929716853 -2.82576423733094
206  -1.88512584277184 -2.82012418699246
207  -2.07472549874757 -2.81405684442222
208  -2.26457894836507 -2.80761785584756
209  -2.45465992094121 -2.80086887677634
210  -2.64492543000995 -2.79387721288024
211  -2.83531735094512 -2.78671511044053
212  -3.02576539720663 -2.77945865361997
213  -3.21619114516064 -2.77218626894192
214  -3.40651235702969 -2.76497688294985
215  -3.59664722115154 -2.75790778827474
216  -3.78651819438918  -2.7510522836492
217  -3.97605466367264 -2.74447717163805
218  -4.16519501380201 -2.73824013803149
219   -4.3538877600711 -2.73238705800455
220  -4.54209238057175 -2.72694922445979
221  -4.72977989624658 -2.72194050018509
222  -4.91693458118571 -2.71735434540666
223  -5.10355504118021 -2.71316074004097
224  -5.28965781576227 -2.70930286354303
225  -5.47528086568305 -2.70569350079073
226  -5.66049150863089   -2.702210910681
227    -5.845397265107  -2.6986939105572
228  -6.03016606872819 -2.69493553413137
229  -6.21505199882388 -2.69067437024683
230  -6.40043123331202 -2.68558177983151
231  -6.58683853851439 -2.67924240941365
232   -6.7750034010575  -2.6711238626109
233   -6.9658717989038 -2.66053013793399
234  -7.16059735308088 -2.64653231860916
235  -7.36045602416753 -2.62787278629946
236  -7.56657917831398 -2.60285642896241
237  -7.77925132243778 -2.56931149861044
238  -7.99631204633648 -2.52490963857538
239  -8.21093076814017 -2.46835655436025
240  -8.41306554228174 -2.40072351104953
241  -8.59680666313975 -2.32422703780338
242   -8.7618049586195 -2.24046736447311
243  -8.90750895321562  -2.1518292684281
244  -9.03809427420845 -2.05781428459345
245  -9.21133109375248 -1.90552945933404
246   -9.7970934932775 -0.255502892983961
247  -9.91107417212949 0.447928713210911
248  -9.96810639623007 0.987499982856361
249  -9.93325265204751   1.6219937578926
250  -9.69514215511531  2.25779694300532
251  -9.22466223962282  2.76402437353106
252  -8.19337792093228  3.10114738646195
253  -7.12677312164272  2.92549755148841
254  -6.17805282114138   2.4990830198826
255  -5.35194399587615  2.04711243514045
256  -4.52490559923599  1.64807131118955
257  -3.66388374651669  1.35925641371034
258  -2.77250194416126  1.20007909789588
259  -1.86737252389456   1.1385874548471
260  -0.963770871690687  1.12112766674727
