// Id               X                Y
  1  -0.00783548106642245 -0.227649025601396
  2  0.874106205531403 -0.174969895602157
  3   1.70996205082172 0.00312204511667675
  4    2.6405242934738 0.512747113625833
  5   3.44313177042803 0.848820537649712
  6   4.20425614377994  1.29715231590149
  7   4.95965102337368  1.74409067404069
  8   5.74576717389864  2.11821952759753
  9    6.5795856035909  2.35240823234997
 10   7.44232587903613  2.36730050257442
 11   8.27821060876225  2.11979692688116
 12   8.66111914121706  1.83216875831606
 13   8.93669668296612  1.39408119241272
 14   8.90175373109869 0.846286283342587
 15   8.43500145252168 0.538699393685866
 16    7.6351143203026  1.00202468620858
 17   6.89421346364188  1.56055220189305
 18   6.45421483581174  1.51840155533445
 19   6.26177676790606  1.43254281809666
 20   6.08069011585246  1.31557488157113
 21   5.91111208381706  1.18190729242321
 22   5.79350584652203  1.08333217022549
 23   5.67352950867773 0.982408299932291
 24   5.56056233217499 0.890616875223402
 25   5.44219884508158 0.800192942344182
 26    5.3194210677214 0.714201874959113
 27    5.1922623337045 0.634252247160207
 28   5.06058013037164 0.561191490946072
 29   4.92483355426295 0.495606721960631
 30   4.78657356206266 0.437957999297875
 31   4.64631708107609 0.387764462004758
 32   4.50527799329442 0.344608663388384
 33   4.36369090030979 0.307732952677536
 34   4.22201453542971 0.276587234961817
 35   4.08039942600077 0.250706118844983
 36   3.93897157068566 0.229761892785739
 37   3.79782793355398 0.213499602808875
 38   3.65703874371763 0.201675622889318
 39   3.51671749243852 0.194018046170185
 40   3.37680219811074 0.190198345226417
 41   3.23723291125882  0.18985660256849
 42   3.09800971395768   0.1926153918419
 43   2.95917244592996   0.1980940725992
 44   2.82077981791332 0.205923425559235
 45   2.68290195452234 0.215755305920545
 46   2.54561407417287 0.227266248779213
 47   2.40899298158365 0.240156400073642
 48   2.27311283651744 0.254146380555241
 49   2.13804289299904 0.268973897586315
 50   2.00384607686498 0.284391279967737
 51   1.87057865543547 0.300164098749364
 52   1.73829084511425 0.316070496444992
 53   1.60702757633006 0.331900759038022
 54   1.47683136856947  0.34745646960855
 55   1.34774449945722 0.362549441993467
 56   1.21981930360532 0.376999595581892
 57    1.0931233612502  0.39063387206624
 58  0.967758967690053 0.403284818537319
 59  0.843827364713206 0.414796582559557
 60  0.721370964619279 0.425032871044517
 61   0.60019638333865 0.433890891862746
 62  0.479885381822482 0.441292167454943
 63  0.359928529934402 0.447165611524228
 64  0.240010467408231 0.451433879997203
 65  0.120020162378682 0.454026747026992
 66  -2.16821656796617e-05 0.454896411716495
 67  -0.120059351871531 0.454026427518858
 68  -0.24003740909589  0.45143354215371
 69  -0.359936932741556 0.447165790211433
 70  -0.479874079793105 0.441293363927839
 71  -0.600171815435335 0.433893155749032
 72  -0.721344040719306 0.425035701865845
 73  -0.843806071855671 0.414799414562999
 74  -0.967745307620089 0.403287445298275
 75  -1.09311555438912 0.390636407741059
 76  -1.21981498111661 0.377002207917414
 77  -1.34774201399204 0.362552202636831
 78  -1.47682986946171 0.347459338800183
 79  -1.60702670020482 0.331903633784877
 80  -1.73829047910426 0.316073262316701
 81  -1.87057880022507 0.300166670274938
 82  -2.00384679358275 0.284393622924056
 83  -2.13804428184971 0.268976033331133
 84  -2.27311504091209 0.254148368473052
 85  -2.40899618977231 0.240158297470491
 86  -2.54561853092951 0.227268043460408
 87  -2.68290792363905  0.21575682453004
 88  -2.82078756003406 0.205924211832759
 89  -2.95918207111576 0.198093255378731
 90  -3.09802127050092  0.19261155025558
 91  -3.23724632124343 0.189847719805636
 92  -3.37681815515364 0.190181946076622
 93    -3.516737255962 0.193991705391274
 94  -3.65706511947267  0.20163794507028
 95  -3.79786045626221 0.213451185155169
 96  -3.93900518168305   0.2297060877388
 97  -4.08042365447555 0.250648868146486
 98  -4.22202612587018 0.276537615011834
 99  -4.36371117759842 0.307705114008516
100  -4.50528908731994 0.344604208478488
101  -4.64637103177995 0.387799959856597
102   -4.7865543960089 0.437989273368807
103  -4.92484634124522 0.495666315748768
104  -5.06049593415329 0.561211080127403
105  -5.19219325866118 0.634277791272776
106  -5.31937560648466 0.714232861637338
107  -5.44220200980177 0.800240457510409
108  -5.56059957148606 0.890664508667977
109  -5.67352089214059 0.982385218716585
110  -5.79344934526961  1.08323028457331
111  -5.91130626900413  1.18198397642421
112  -6.08062663413419  1.31540088397926
113  -6.26168486585166  1.43235240882911
114  -6.45409517582467  1.51822138909524
115  -6.89408911980872  1.56044726613097
116  -7.63501427560422  1.00196802076142
117  -8.43491830769361 0.538668593608881
118   -8.9016572194193 0.846263605508897
119  -8.93659081445337  1.39403998890042
120   -8.6610201203738  1.83211501061251
121  -8.27811658430227  2.11974353198485
122  -7.44224237317474  2.36727057822535
123  -6.57950368231692  2.35244210337799
124  -5.74567022136023  2.11834116770952
125  -4.95954346517768  1.74442047734496
126  -4.20449595422947  1.29890812712614
127  -3.45194311133895 0.855635308577125
128   -2.6940407533971 0.515550186867465
129  -1.87498109925452 -0.0104212867887856
130  -0.923869579311141 -0.175473745944182
131  -0.00235556592945617 0.383612724094027
132  0.870385822334412 0.439000728778499
133   1.71856262629906 0.628323638054962
134   2.53881897716972  1.05295494806802
135   3.32471315094725  1.45311046748545
136   4.10241478047073  1.90816639614833
137   4.90171307057924  2.35911283137039
138   5.76515754713449  2.73264386256464
139   6.77390543524894   2.9370962649194
140   7.83805181381121  2.80297865868022
141   8.74818640772962  2.22295972915467
142    9.1253802293628  1.64345970661649
143   9.26097701086358  1.02759498287571
144   9.24961802528495 0.533129084322308
145   9.22701843374918  0.10725088012942
146   9.37223124011221 -0.567300565920948
147   9.73455350134309 -1.78134797279537
148   9.73455127101376 -1.78135181334311
149   9.56924468632469 -1.98125318046057
150   9.25292353162162 -2.21276873392755
151   9.15331558761247 -2.28041676191114
152   8.97982510992333 -2.39749428284488
153   8.83903875873664 -2.49540851005328
154    8.6898398586013 -2.60217883184602
155   8.54026539061559 -2.71033771472952
156   8.38637815589694 -2.81964106460805
157   8.22608860179939  -2.9281019239157
158   8.05976419908514 -3.03247092236768
159   7.88812808578462 -3.13049945350422
160   7.71120094130702 -3.22160772454135
161   7.53000090133794  -3.3056263889072
162   7.34471406050139 -3.38334446155241
163   7.15642802919798 -3.45533861439096
164   6.96542961246236 -3.52244731000806
165    6.7718008841835 -3.58533903996333
166   6.57506725878463 -3.64458397794411
167   6.37480855513905 -3.70048893620527
168   6.17084184349538 -3.75314152708793
169   5.96328601623708 -3.80249399865508
170    5.7526480924443 -3.84842626749366
171   5.53952611425277 -3.89086478552787
172   5.32440829579368 -3.92982734356719
173   5.10767750183851 -3.96540158298798
174   4.88963839272322 -3.99771938655311
175   4.67054130286686  -4.0269388764702
176   4.45059659766291  -4.0532348532826
177    4.2299836700823 -4.07679390397502
178    4.0088565896131 -4.09781086800632
179   3.78734743997649  -4.1164849814855
180   3.56556816600803 -4.13301559087766
181   3.34361142258977 -4.14759816388641
182    3.1215505522789 -4.16042128956029
183   2.89943916508481 -4.17166478918057
184   2.67730964368024  -4.1814985569778
185   2.45517257401552 -4.19008131035792
186   2.23301422409527 -4.19755873336461
187   2.01079898425929 -4.20406043826659
188   1.78846475772205 -4.20969646105857
189   1.56593368174609  -4.2145535521184
190   1.34311298929562 -4.21869374918989
191    1.1199473978658 -4.22215569061718
192  0.896430090098917 -4.22496131728492
193  0.672613878509325  -4.2271242785007
194  0.448556009941115 -4.22865667397562
195  0.224324590473099 -4.22957009293899
196  -2.64046751402238e-07 -4.22987337238083
197  -0.224325442868411 -4.22956977187027
198  -0.448557866562541 -4.22865583920886
199  -0.672617335318105 -4.22712264293769
200  -0.896435219121895 -4.22495865721609
201  -1.11995329972929 -4.22215198589717
202  -1.34311839281327 -4.21868921068769
203  -1.56593814465884  -4.2145485142526
204  -1.78846862780626 -4.20969124338608
205  -2.01080271064855 -4.20405526582563
206  -2.23301798204293 -4.19755372719534
207  -2.45517636952344 -4.19007651379995
208  -2.67731343717025 -4.18149397189221
209  -2.89944293157065 -4.17166040525193
210  -3.12155428308315 -4.16041710615579
211  -3.34361512151087 -4.14759421304871
212  -3.56557184311062 -4.13301197294889
213  -3.78735111129478 -4.11648191416642
214  -4.00886027521699 -4.09780873071436
215  -4.22998739324485  -4.0767932362845
216   -4.4506003794147 -4.05323625519167
217  -4.67054516617032 -4.02694276991965
218  -4.88964239488536 -3.99772564490675
219  -5.10768190846758 -3.96540909624854
220  -5.32441416178646 -3.92983362990529
221  -5.53953696639911 -3.89086568371061
222  -5.75267371926813 -3.84841554415632
223  -5.96334919945249 -3.80246243305038
224  -6.17098540405781 -3.75307550816124
225  -6.37509134658586 -3.70037097890474
226  -6.57552879454019 -3.64440165080853
227   -6.7723864484439  -3.5851083183544
228  -6.96595947433719 -3.52222851176505
229  -7.15666386237506 -3.45522299214218
230  -7.34461389126762 -3.38336288306558
231  -7.52964259339814 -3.30576197589816
232  -7.71093215107272 -3.22170661217495
233  -7.88798599580827 -3.13052778056705
234  -8.05985476787826 -3.03235241078885
235  -8.22619080778992 -2.92796521289612
236  -8.38634177620061 -2.81960591182738
237  -8.54013978456172  -2.7103914294162
238  -8.68976386611179 -2.60223056561894
239  -8.83915016667929 -2.49536447974512
240  -8.97999132164285 -2.39744990626808
241  -9.15258931642307  -2.2810036779657
242  -9.25288419920886 -2.21291178461892
243  -9.56884898283844 -1.98165398597767
244   -9.7344733705099 -1.78145959660529
245   -9.7344755801871 -1.78145579137861
246  -9.37218860611863 -0.567346893101013
247   -9.2269601015761  0.10725562321229
248  -9.24955068849578 0.533131834476062
249  -9.26089041328142  1.02758225157377
250  -9.12528480565703   1.6434063589805
251  -8.74809672173433  2.22289840150979
252  -7.83799017102807  2.80293453303547
253  -6.77387642891266  2.93710659321885
254  -5.76527387111617  2.73274420636629
255   -4.9017575505487  2.35950702149022
256  -4.10188737883996  1.90973586792611
257   -3.3247032830746  1.45500806843467
258  -2.54440035438579  1.04443359065806
259  -1.74322411038179 0.602252554147646
260  -0.878768213913992 0.426300738873233
