// Id               X                Y
  1  -0.102710708214427  3.77658081731605
  2  0.823868162369163  3.73894842547239
  3   1.75594211932925  3.61770638728317
  4   2.69740674129413  3.41052412251638
  5   3.61797176620166  3.13295252468382
  6   4.48112215617737  2.82258123647499
  7     5.356859279653  2.55000822177532
  8   6.24413133426589  2.32065060184355
  9   7.13386432491224  2.11611655393822
 10   8.01491763266349  1.89897938933887
 11   8.87532531928251  1.60952974471541
 12   9.32026342192227  1.35852219825262
 13   9.71150946238564  1.00019662843999
 14   9.96690356683392  0.42467206616378
 15    9.8268919843917 -0.11338999710359
 16   9.10988233650501 -0.351732107230943
 17   8.60056012379596 -0.241454336386067
 18   8.50093752435607 -0.205801191296319
 19   8.44185994383171 -0.182446635723849
 20    8.3845142878427 -0.158230926095693
 21   8.32688400420133 -0.132357302886742
 22    8.2624385134131 -0.101652097750723
 23   8.18637065110677 -0.0630276782889389
 24   8.09698961384265 -0.0144528580899659
 25   7.99473760165839 0.0451701930668216
 26   7.88109362416593 0.116208371857482
 27   7.75786257071846 0.198450239717322
 28    7.6268205532319 0.291189337570582
 29   7.48961325761021 0.393255688449891
 30   7.34772720403967 0.503077357479066
 31   7.20232389014185 0.618919824019165
 32    7.0540154165854 0.739228017353583
 33   6.90289912442552 0.862754249358751
 34   6.74876456520959 0.988489736049279
 35   6.59124715823138  1.11559133986249
 36   6.42991022584438  1.24334081756359
 37   6.26429664366865  1.37111538782768
 38   6.09396998414075  1.49836057602984
 39   5.91855143913113  1.62456522395087
 40    5.7377530534112  1.74924131429614
 41   5.55140459880648  1.87191157290204
 42   5.35947035732872  1.99210638211844
 43   5.16205321705989  2.10936911085533
 44   4.95938597352728  2.22326680281916
 45   4.75181224261424  2.33340226360062
 46   4.53976093503142  2.43942410532904
 47   4.32371853689673  2.54103269550092
 48   4.10420276873166  2.63798147908599
 49   3.88174005105815  2.73007428827118
 50    3.6568480164685  2.81715985248923
 51   3.43002331280561  2.89912485552118
 52   3.20173418856116  2.97588674165837
 53   2.97241676634221  3.04738722000672
 54   2.74247338973607  3.11358715230047
 55   2.51227094943362  3.17446324356313
 56   2.28213683808993  3.23000662193601
 57   2.05235062105568  3.28022291081607
 58   1.82313125540784  3.32513277531687
 59   1.59462286443093   3.3647714193585
 60   1.36688533366288  3.39918562083915
 61   1.13989648515613  3.42842798244898
 62  0.913568354789677   3.4525497307735
 63  0.687773199471905  3.47159442592498
 64   0.46237033385413  3.48559448874754
 65  0.237225645639547  3.49457092808476
 66  0.0122199980664912  3.49853521626635
 67  -0.21275271906028  3.49749166337236
 68    -0.437794250748  3.49143886709619
 69  -0.663012460141966  3.48036951177077
 70  -0.888528467118884  3.46426865696699
 71  -1.11447577473425  3.44311149783502
 72  -1.34098847277749  3.41686216420954
 73  -1.56817920079735  3.38547509699441
 74  -1.79611237740034  3.34889960971928
 75    -2.024781580626  3.30708666483071
 76  -2.25409871756636  3.25999566567468
 77  -2.48389676290361  3.20759918467914
 78  -2.71394159118602  3.14988492179219
 79  -2.94394604004706  3.08685569559112
 80  -3.17358114608882  3.01852896540207
 81  -3.40248286609263  2.94493720501615
 82  -3.63025519246522  2.86612987052566
 83  -3.85647171399427  2.78217714404585
 84  -4.08067775899354  2.69317524059217
 85  -4.30239487398123  2.59925280256969
 86   -4.5211288963732  2.50057769432047
 87  -4.73638237730698  2.39736330427913
 88  -4.94767155486121  2.28987328887839
 89  -5.15454738560589  2.17842364309986
 90   -5.3566192783778  2.06338119439771
 91  -5.55357921257932  1.94515821406808
 92  -5.74522307936291  1.82420384263258
 93  -5.93146568847842  1.70099424853801
 94  -6.11234626687581  1.57602445908946
 95  -6.28802256213508  1.44980508107412
 96  -6.45875355666343  1.32286631993934
 97  -6.62487252260939  1.19576999564987
 98  -6.78675271725421  1.06912842416087
 99  -6.94476667330978 0.943628130000201
100   -7.0992359123801 0.820057599396995
101  -7.25035615042522  0.69934561334063
102  -7.39805816631215 0.582632827453995
103  -7.54180722978457 0.471356522838354
104  -7.68055337156561 0.367165907717681
105  -7.81293585481599 0.271618742844322
106  -7.93744449071339 0.185948200649327
107  -8.05245632246812 0.110984681494701
108   -8.1563274807879 0.0471097219155794
109  -8.24771265798814 -0.00584532952307293
110  -8.32624094993608 -0.048791956956579
111  -8.39360585419124 -0.0836780189148538
112  -8.45469085883875 -0.113710828506159
113  -8.51650147622456 -0.142520615919732
114  -8.58166666969458 -0.171141670501699
115  -8.69777339094995 -0.217629568847427
116  -9.20715529885605 -0.353562879202196
117  -9.94213341276628 -0.164582740260674
118  -10.1228212927153 0.346613602506874
119  -9.92655891954122 0.927390815167296
120  -9.57097926138365  1.31081771908422
121  -9.14923782875969  1.58622022290905
122  -8.30611619659661  1.90486425330426
123  -7.43456896625814  2.12858557503886
124  -6.55123346026648  2.32228829052412
125  -5.66816796039623  2.53065752615939
126  -4.79476335155074  2.77945229961455
127  -3.93521646494481   3.0716581696723
128  -3.07230214972273  3.35801009645699
129  -2.17128735835398  3.56888058586846
130  -1.13709562578621  3.69067591022436
131  -0.124647962031372  4.36190594131306
132  0.861030786636064  4.33028811079161
133   1.82665468995447  4.20366066780669
134   2.77166379258518  3.99376346608686
135   3.70217422150294  3.72049387240967
136   4.62076917086343  3.42197359368938
137   5.53197816812429  3.14368703762918
138   6.45347923551984  2.90330910061598
139   7.39632132341577  2.67630161319799
140   8.40069042630378  2.37699758546569
141    9.3468162577874    1.889810611908
142   9.84535386382812  1.44139371044002
143   10.2274761019446 0.899658412049967
144   10.4577973728594 0.389344378647034
145   10.6060587576614 -0.0996160996395237
146   10.7547844493445 -0.747408018321235
147   10.7467735897664 -1.82078805150989
148   10.5471750348626 -2.22495899238867
149   10.2735237741824 -2.54264865578599
150   9.95286770073813 -2.77912256851352
151   9.60222365997184 -2.94243854874068
152   9.23892942762823 -3.03889905443145
153   8.87840054370585 -3.07731092147017
154    8.5308568963383 -3.06850611815252
155   8.20136698112033 -3.02309997741858
156   7.89146042142192 -2.95015982444673
157    7.6006812635492 -2.85691002807547
158   7.32757827143295 -2.74891780260879
159   7.07019181824985 -2.63036600975301
160   6.82630709798182 -2.50430437026825
161   6.59376813148375 -2.37296961074431
162   6.37081284064859 -2.23816584124245
163   6.15611492809854 -2.10147754843874
164   5.94862957668052 -1.96429979899926
165   5.74748213108949 -1.82783495619856
166   5.55192093072473 -1.69310207650707
167   5.36129284550572 -1.56094979052923
168   5.17502236255173 -1.43206657351583
169    4.9925890451438 -1.30698805529758
170   4.81350367001083 -1.18610360210357
171   4.63728606280895 -1.06966542950171
172    4.4634483564281 -0.957802935809362
173   4.29148628021583 -0.850543071786462
174   4.12087900762846 -0.747835399005256
175   3.95109615139921 -0.649579058477125
176   3.78160938841906 -0.555648575013588
177   3.61190599995653 -0.465916029548587
178    3.4415020286999 -0.380268146136853
179   3.26995341971979 -0.298617841428413
180   3.09686418153247 -0.220910555017003
181   2.92189118335111 -0.147126177063331
182   2.74474571607441 -0.0772776633123996
183   2.56519246023437 -0.0114075416782727
184   2.38304708274719 0.0504164956224658
185   2.19817428749732 0.108105869872826
186   2.01048852999708 0.161554569326255
187   1.81995925727549 0.210641693550794
188   1.62662082132493 0.255233807486269
189   1.43058404178911 0.295188479929566
190   1.23204316122536 0.330360288641362
191    1.0312715269297 0.360609347748581
192  0.828603653949772 0.385810602358707
193  0.624408231329276 0.405861147381665
194  0.419061067619541 0.420683584018598
195  0.212926091926278  0.43022532827679
196  0.00634807181902431 0.434455438715661
197  -0.200343886559423 0.433361120079711
198  -0.406825879531802    0.426945681374
199  -0.612766863042066 0.415228836301262
200  -0.817819776499546 0.398249174626835
201  -1.02162098486335 0.376067598953798
202  -1.22380113050724 0.348769753849996
203  -1.42400687267127 0.316465395109482
204  -1.62192810774482 0.279283649139958
205  -1.81732177655429 0.237364977349733
206   -2.0100244913897 0.190852251548557
207  -2.19995201892012 0.139883428734338
208  -2.38708995477705 0.0845868863593862
209  -2.57148240287955 0.0250788018804043
210  -2.75322372396638 -0.0385388211667583
211  -2.93245505336213 -0.106180633944654
212  -3.10936469289875 -0.177781347105288
213  -3.28419038047437 -0.253299760841385
214  -3.45722144482977 -0.33272264276638
215  -3.62879935208463 -0.416067434548786
216   -3.7993157406998 -0.503382694163242
217  -3.96920756786928 -0.594745223465735
218  -4.13894945103676 -0.690252984510022
219  -4.30904373887815 -0.790013203636601
220  -4.48000933517276 -0.894125543783953
221  -4.65237082227531   -1.002660909692
222  -4.82664989590953 -1.11563727298265
223  -5.00336133728535 -1.23299466714271
224   -5.1830154682205 -1.35457187832135
225  -5.36612810451449 -1.48008700533228
226  -5.55323757711002 -1.60912286656352
227  -5.74492697982578 -1.74111653133101
228  -5.94184925780913 -1.87535079906265
229  -6.14475385547985  -2.0109450080699
230  -6.35451747371809 -2.14684373287078
231  -6.57219333070837 -2.28180687557515
232  -6.79911910262145 -2.41441225076041
233  -7.03707884113941 -2.54303675592905
234  -7.28829274471916  -2.6656641945364
235   -7.5551160069635 -2.77950739222563
236  -7.83973830907304 -2.88066600313425
237  -8.14393092601203  -2.9638452266907
238  -8.46858354238982 -3.02205438333486
239  -8.81276726256013 -3.04636988259755
240  -9.17221533233647 -3.02612173629673
241   -9.5376291038281 -2.95008097903196
242   -9.8943634676057 -2.80871075199031
243  -10.2256028260167  -2.5950595352265
244  -10.5155768383511  -2.3005155790926
245  -10.7372108483063 -1.92264741822923
246   -10.823208585256 -0.856075979727275
247  -10.7239493273886 -0.200105379943752
248  -10.6148769156698 0.299069416000647
249   -10.430646018284 0.811833039710141
250  -10.0914003769744  1.37665856850592
251  -9.62095695226845  1.85391143064011
252  -8.69619190556948  2.37766077832541
253   -7.6946854205471  2.68965101570231
254  -6.74856760093668  2.90900923881303
255  -5.82238421176754  3.13021345104895
256  -4.90539938508764  3.38681450514514
257  -3.97834022006064  3.67148594736598
258  -3.01283660941097  3.94506104600545
259  -2.04086450412773  4.15896397666485
260  -1.08704549205379  4.29812544667245
