// Id               X                Y
  1  -0.102825876035225  3.31000103539861
  2  0.823491236719786  3.27247021610964
  3    1.7499916608199   3.1517777981278
  4   2.66915636819002  2.95367659099575
  5   3.54186036187114  2.70704728977852
  6    4.4225977921992  2.48721137762843
  7   5.31209481908695  2.30142530078845
  8   6.20553631520834  2.14273091150734
  9    7.0958300732517  1.98611654369915
 10   7.97539647359307  1.80073808843072
 11   8.84075074745168   1.5485650284304
 12    9.2925789213504  1.32273461347741
 13   9.70151863362165 0.988800746775264
 14   9.98566846982529 0.433059598147677
 15   9.87188914504338 -0.098678437735383
 16   9.15099701844424 -0.356616485168474
 17   8.61875291295923 -0.264457282468834
 18   8.50115393850364 -0.229987426495226
 19   8.44308047134209 -0.21112862082708
 20   8.38739296539845 -0.191908053025246
 21   8.33271387749055 -0.171992315639174
 22   8.27351898195326 -0.14926420904235
 23   8.20462888145944 -0.121337499793744
 24   8.12337599897659 -0.0864064102380249
 25   8.02912381354146 -0.0432996455052153
 26   7.92240338720469 0.00867599972101674
 27   7.80426878413835 0.0698366758219968
 28   7.67592245822395 0.140177679453116
 29   7.53855744810221 0.219384868449802
 30   7.39337251617963 0.306797073505737
 31   7.24167660115172 0.401346231391765
 32    7.0848423021285 0.501625534329421
 33   6.92387320513634 0.606254819824185
 34   6.75916291537383 0.714150658897902
 35   6.59075081208839 0.824440927655308
 36   6.41854109890029 0.936363664910077
 37    6.2423963906758  1.04922961390936
 38   6.06218824785554  1.16240443012727
 39   5.87782923362634  1.27529809421532
 40   5.68929212950605  1.38735934885868
 41   5.49661872646933   1.4980739907798
 42   5.29992008873086  1.60696569354206
 43   5.09937031250043  1.71359792550604
 44   4.89519595137353  1.81757569505455
 45   4.68766322043799  1.91854625278521
 46   4.47706479621932  2.01619835768911
 47   4.26370757976801  2.11026013057148
 48   4.04790229506959  2.20049579513532
 49   3.82995534283502  2.28670173443783
 50   3.61016296663207  2.36870230108307
 51   3.38880751873181  2.44634576227908
 52    3.1661554131216  2.51950067846925
 53   2.94245619083815  2.58805293145556
 54   2.71794198403247  2.65190353747366
 55   2.49282658274716  2.71096728592963
 56    2.2673033793295  2.76517211182622
 57   2.04154182525796  2.81445893367503
 58   1.81568275431499  2.85878151264885
 59   1.58983384513351  2.89810581687136
 60   1.36406713862163  2.93240852240184
 61    1.1384203059993  2.96167466426154
 62  0.912902104932844  2.98589489639515
 63  0.687500765636482  3.00506305133176
 64  0.462192950312718  3.01917455049503
 65  0.236951035925088  3.02822581286399
 66  0.0117475089842852  3.03221441151137
 67  -0.213443517991157   3.0311395334158
 68  -0.438646787453622  3.02500233234479
 69  -0.66388703713912   3.0138059482679
 70  -0.889189282038202  2.99755521955445
 71  -1.11457683215646  2.97625637265509
 72  -1.34006624999446  2.94991714636322
 73  -1.56565964511617  2.91854777094456
 74  -1.79133608450533  2.88216291750785
 75  -2.01704464528289  2.84078428209666
 76  -2.24270112555103  2.79444315018975
 77   -2.4681888809741  2.74318232353627
 78  -2.69336264359518   2.6870571507932
 79  -2.91805341343472  2.62613583743472
 80  -3.14207277198124  2.56049947733064
 81  -3.36521579115309  2.49024227706829
 82  -3.58726253285145  2.41547231408306
 83    -3.807978645245  2.33631299839956
 84   -4.0271157435054  2.25290526903657
 85  -4.24441223564863  2.16541046599085
 86  -4.45959514218304  2.07401375972918
 87   -4.6723833291093  1.97892796893165
 88  -4.88249243920316  1.88039754104853
 89   -5.0896416453918  1.77870241253881
 90  -5.29356213261269  1.67416142576346
 91  -5.49400692015587  1.56713498853509
 92  -5.69076126577462  1.45802675498262
 93  -5.88365247427423  1.34728430727812
 94  -6.07255752084428  1.23539912377978
 95  -6.25740655456008  1.12290648596263
 96  -6.43818009761761   1.0103863243976
 97  -6.61489751761863 0.898466263600297
 98  -6.78759377021689 0.787828359729568
 99  -6.95627927675253 0.679221828050882
100  -7.12086642234072  0.57349008172561
101  -7.28098055123247 0.471658841006509
102  -7.43561468086973 0.375093266924224
103  -7.58333115893242 0.285266065577636
104  -7.72287700950054 0.203281057711706
105  -7.85318953679876 0.129830875782188
106  -7.97323889996436 0.0652855424088284
107  -8.08198902866829 0.00973512283086776
108  -8.17852849460016 -0.0370254373690473
109  -8.26241572574418 -0.0755683922431825
110  -8.33429795803724 -0.106968885006596
111  -8.39677238931383 -0.132996357073972
112  -8.45493256393939 -0.156140589136126
113  -8.51438417173652 -0.178692050700321
114  -8.57659464513183 -0.201065168658868
115  -8.70624026209356 -0.243592056539902
116  -9.23779536354126 -0.357999236954904
117  -9.97353207639906 -0.139217984006903
118  -10.1166029316833 0.382377667242937
119  -9.86507120263103  0.94789093135882
120  -9.47272071387427  1.29900102416718
121  -9.03045605548286  1.53996116925193
122  -8.17184637167553  1.81045088636971
123  -7.29505942024985  2.00267831374693
124  -6.40571850014098  2.15804242582117
125  -5.51193764304722  2.31002391732992
126  -4.62089891189901  2.48620024096621
127  -3.73766887149979  2.69602269404512
128  -2.86270751937446  2.93469057553086
129  -1.95488625211542  3.13427420382966
130  -1.02821867346121  3.23809751399419
131  -0.103887086220925  3.89526982344389
132  0.839711481123898  3.85907543419832
133   1.77718113636405  3.73689381643553
134   2.70645155914425  3.54511686081562
135   3.62726503299025  3.31765096026242
136   4.54083741549865  3.09594451729295
137   5.45812667846264   2.9037624725543
138   6.38459942396624  2.73653827462597
139   7.32489460354786  2.56208237934556
140   8.33331594720605  2.29770329540342
141   9.28992278807637  1.84214877898276
142   9.80838788619897  1.41993235148168
143   10.2204202777017 0.910609781767071
144   10.4802939303865 0.432294256469179
145   10.6579125712907 -0.0428479550076525
146   10.8194167648882 -0.693759658684965
147   10.7853631438188 -1.78265621464572
148   10.5889170611938 -2.18899842587762
149   10.3181238634313 -2.52044180314134
150   9.99970275824743 -2.77462946453906
151   9.64949331231897 -2.95848323931278
152   9.28331930487316 -3.07729431284069
153   8.91637365283121 -3.13832228190821
154   8.55987100292296 -3.15125948990402
155    8.2202339411281 -3.12634556071772
156   7.90013628851539 -3.07281365028848
157   7.59991214777928 -2.99828239351821
158   7.31863926416739 -2.90875709154108
159   7.05477326945554 -2.80885134033414
160   6.80641193063931 -2.70200377066603
161    6.5713484726731 -2.59062442543169
162   6.34721525240168 -2.47628118556447
163   6.13198595757628 -2.36010509654255
164   5.92425566345978  -2.2431227495759
165   5.72300286685794 -2.12626430065227
166   5.52738811481372 -2.01032216820006
167   5.33667787016596 -1.89594858559515
168   5.15020782993252 -1.78366427991629
169   4.96736032799219 -1.67387034572507
170    4.7875501555812 -1.56686260924995
171   4.61021665724778  -1.4628481454671
172   4.43482074849554 -1.36196318918534
173   4.26084561248597 -1.26429133527069
174    4.0877998316252 -1.16988083762192
175   3.91522178556305 -1.07875998256013
176   3.74268432499287 -0.990949834054259
177    3.5697989688422 -0.906474015096563
178    3.3962191201108 -0.825365519441168
179   3.22164201954631 -0.747670799636592
180    3.0458093466435 -0.673451543149472
181   2.86850654285895 -0.602784639869264
182   2.68956109117702 -0.535760878477335
183   2.50884015564197 -0.472482898373131
184   2.32624815909788 -0.413062868678876
185   2.14172500625294 -0.357620254117817
186   1.95524563054636 -0.306279844379824
187   1.76682121213674 -0.259169976808854
188   1.57650170792849 -0.216420635363857
189   1.38437841790721 -0.178160989717493
190   1.19058467204156 -0.144516079644805
191  0.995292951245996 -0.115602760193053
192   0.79870802732209 -0.0915254972808998
193  0.601057408205853 -0.0723728218080942
194  0.402581463688871 -0.0582150428146364
195  0.203525477452417 -0.0491033260247805
196  0.00413480635999986 -0.0450697785168192
197  -0.195346914281296 -0.0461279674319961
198  -0.394677465338312 -0.0522733593506961
199  -0.593615048084397 -0.0634833989217403
200  -0.791918189341172 -0.0797172556674819
201  -0.98934802448495 -0.100915583909623
202  -1.18567381655782 -0.127000857565581
203  -1.38068135912826 -0.157878814993921
204  -1.57418250511291 -0.193441204189832
205   -1.7660232912914 -0.233569487804086
206  -1.95608862348363  -0.2781387694189
207  -2.14430303482393 -0.327021203302098
208  -2.33062865101202 -0.380088526578378
209  -2.51506227284661 -0.437213825586095
210  -2.69763323059924 -0.498272934791108
211  -2.87840283755691 -0.563145875924036
212  -3.05746544923757 -0.631718562979867
213  -3.23495063624517 -0.703884762183241
214  -3.41102582383707 -0.779548097461404
215  -3.58589881533607 -0.85862376036869
216  -3.75981976722453 -0.941039509446676
217  -3.93308234167054 -1.02673550990056
218  -4.10602390162188 -1.11566256069002
219  -4.27902474075683 -1.20777828501541
220  -4.45250647290764 -1.30304093233757
221  -4.62692985877576 -1.40140056808682
222  -4.80279252947885 -1.50278761810299
223  -4.98062727364879 -1.60709898141653
224  -5.16100177437615 -1.71418219727385
225  -5.34452089983545 -1.82381839375996
226  -5.53183287710503 -1.93570488187939
227  -5.72364100941961 -2.04943823157082
228  -5.92072337426265 -2.16449850801842
229  -6.12396536687493 -2.28023545244983
230  -6.33442191935972 -2.39586128689903
231  -6.55349438088107 -2.51048262487165
232  -6.78326775246676 -2.62315367804297
233  -7.02628305195261 -2.73255798546377
234  -7.28485614641731  -2.8364968174569
235  -7.56098191908291 -2.93172313227786
236  -7.85634476337654 -3.01381696760595
237  -8.17209526775001 -3.07696657344127
238  -8.50826890085738 -3.11372268764131
239  -8.86275752810904 -3.11492993625744
240  -9.22991145482432 -3.07020849687339
241  -9.59938661668995  -2.9693636405601
242  -9.95669819370783 -2.80427903137431
243  -10.2864919826014 -2.56873330963144
244  -10.5736271678656  -2.2547640872711
245  -10.7898686978251 -1.86704573127396
246  -10.8875723553197 -0.784086922791351
247  -10.7628503413147 -0.124924752844641
248   -10.611518688682  0.35879782781562
249  -10.3779552902368 0.847347798395356
250  -9.99043213786552  1.37470222505027
251  -9.48775670912547  1.81696813399458
252  -8.54212227972536  2.29786416746305
253  -7.53309492529862   2.5748592788921
254  -6.58935261612302  2.75040277011549
255  -5.66058714947339  2.91169951300047
256  -4.74112327087507  3.09454516326866
257  -3.82605209262811  3.30666509922601
258  -2.90494532254526  3.52756841805513
259  -1.97503960396034  3.71798173473448
260  -1.04074157638908  3.84433359928082
