// Id               X                Y
  1  -0.102561525294641  3.73378017028528
  2  0.820196798600086  3.69670518032256
  3   1.74813959498273  3.57755238736524
  4   2.68556484510747  3.37398248624196
  5    3.6100976528707  3.09536830254804
  6   4.47632542707965   2.7908588288093
  7   5.35509512652254  2.52468652136354
  8   6.24480411381264  2.30188638403098
  9   7.13639990535376  2.10342821001052
 10    8.0188835072866  1.89104699993517
 11   8.88036280824369  1.60429760945016
 12    9.3257069255088  1.35373842360227
 13   9.71696549831302 0.994997947060711
 14   9.97087882104839  0.41835609101065
 15   9.82791569430443 -0.119127773080803
 16   9.10740789223875 -0.352026102848335
 17   8.59523519154621 -0.23887215050668
 18   8.49393037054066 -0.202336778235924
 19   8.43467314602066 -0.178768665866401
 20   8.37733373935733 -0.154448998679148
 21   8.31983165115335 -0.128562229098802
 22   8.25556190673581 -0.0979077370560855
 23   8.17968186655378 -0.0594037751838129
 24   8.09048214878396 -0.0110466497455141
 25   7.98838780190134 0.0482284491955502
 26   7.87485986009325 0.118759248879282
 27   7.75168933438682 0.200311966676014
 28   7.62064619754134 0.292165584074543
 29   7.48336864839327 0.393152291323078
 30   7.34131579039096 0.501735601503476
 31   7.19561136714173 0.616240976103246
 32   7.04686037676753  0.73515599708048
 33   6.89518384932647 0.857248809627724
 34   6.74039963681094 0.981518368232878
 35   6.58216767576376  1.10712852088965
 36   6.42007368250101  1.23336653741156
 37   6.25368249735244  1.35961299812317
 38   6.08257999447002  1.48531488648949
 39   5.90641015933478  1.60996138397029
 40   5.72490789435411  1.73306476514703
 41   5.53792494292595  1.85414908724911
 42   5.34544542912378  1.97274791539858
 43   5.14758875264204  2.08840998373261
 44   4.94460003615998  2.20070970125077
 45   4.73683069516816  2.30925867545802
 46   4.52471307780238  2.41371502727584
 47   4.30873329503991  2.51378864564839
 48   4.08940563918353   2.6092419809326
 49   3.86725085385937  2.69988703843911
 50   3.64277937058645  2.78557976962003
 51      3.41647967587  2.86621316081617
 52   3.18881125240146  2.94171016729636
 53   2.96020097389474  3.01201739215194
 54   2.73104133407642  3.07710015113549
 55   2.50168845577873  3.13693929725011
 56    2.2724576619287   3.1915298393596
 57    2.0436149633154    3.240880907812
 58   1.81536466127335  3.28501603464056
 59   1.58783632728241   3.3239722967339
 60   1.36107724012544  3.35779708424469
 61   1.13505629782363  3.38654236446903
 62  0.909681070477752  3.41025782834946
 63  0.684823329183557  3.42898513292578
 64  0.460344608205248  3.44275491381949
 65  0.236114375442699  3.45158680593571
 66  0.0120174861482515  3.45549141980987
 67  -0.212048235704853  3.45447270485775
 68  -0.436180793119313  3.44852936013416
 69  -0.660484513335095  3.43765461269974
 70  -0.885077310321518   3.4218345019745
 71  -1.11009026819022  3.40104560107096
 72  -1.33565675673275  3.37525365758975
 73  -1.56189159905682  3.34441462799774
 74  -1.78886525468105  3.30847875163294
 75  -2.01658124137994  3.26739686690906
 76  -2.24496421434633  3.22112697893151
 77  -2.47386097851127  3.16963907579064
 78  -2.70305077349377  3.11291737896885
 79  -2.93225847959008  3.05096064500463
 80  -3.16116568420664   2.9837818876338
 81  -3.38941762537017  2.91140880929384
 82  -3.61662661276769  2.83388571651891
 83  -3.84237378573438   2.7512771521703
 84  -4.06621126875079  2.66367307884836
 85  -4.28766647033563   2.5711951773033
 86  -4.50624980836264  2.47400360821418
 87  -4.72146665825068   2.3723033802914
 88  -4.93283378025237  2.26634929047761
 89  -5.13989981085771  2.15644833817744
 90  -5.34226856177439  2.04295869622246
 91  -5.53962291998173  1.92628487190173
 92  -5.73174628290754  1.80686964324311
 93  -5.91853801215775  1.68518454728622
 94  -6.10001968069062  1.56172173184533
 95  -6.27633007253189  1.43699033507219
 96  -6.44770871739758  1.31151986344556
 97  -6.61446946791113  1.18587143540447
 98  -6.77696626134826  1.06065598505666
 99  -6.93555187992829 0.936557657437166
100  -7.09052607750969 0.814362092919418
101  -7.24205815267988 0.694996067306374
102  -7.39005337385442 0.579593563234795
103  -7.53397804228068 0.469560523699009
104  -7.67281232858093 0.366494167955876
105  -7.80521540579564 0.271918364578603
106  -7.92967810267733  0.18705963551339
107  -8.04457700161333 0.112754984896881
108  -8.14827567240514 0.0493981592271896
109   -8.2394411003625 -0.00316099733573247
110  -8.31771373783325 -0.045808835116878
111  -8.38479726906894 -0.0804667966819675
112  -8.44559621878219 -0.110327944081107
113  -8.50717558628828 -0.139040016171916
114  -8.57225116439614 -0.167674242403484
115  -8.68976024403046 -0.214880753766933
116  -9.20200027513005 -0.35306270910072
117  -9.93965556414941 -0.168214157637204
118  -10.1220781414226 0.342259960514675
119   -9.9270251784313 0.922966728276955
120  -9.57191245537799  1.30616705968225
121  -9.15058633460994  1.58078082428599
122  -8.30742667129374   1.8967204291897
123  -7.43612413987666  2.11625717771443
124  -6.55338040662298  2.30456731288605
125  -5.67120901750525  2.50676970089504
126  -4.79900982845446   2.7491149794522
127  -3.94101907775634  3.03459518259177
128  -3.07786619724179  3.31325512180553
129   -2.1765326081503   3.5211990738898
130  -1.13892058378384  3.64534987279481
131  -0.120392513152074  4.31856433550853
132  0.864438870672963  4.28814239949874
133   1.82940500350915  4.16266168639941
134   2.77361336748948  3.95445532941731
135   3.70192945437482   3.6837018497122
136   4.61912982010052  3.38989183144962
137    5.5311236741026  3.11805839423822
138   6.45416198778873  2.88450090806725
139   7.39924958506038  2.66341460726826
140    8.4055751120728  2.36838731271591
141   9.35286475056434  1.88255916691016
142   9.85128887450693  1.43357903779511
143   10.2323695738685 0.890829379984898
144   10.4614054989659 0.379668187475943
145   10.6083731828464 -0.10938071288349
146   10.7566668895198 -0.760490945389117
147   10.7467612315814 -1.80700533020834
148   10.5497468925691 -2.21120001326224
149   10.2782145209845 -2.52971809378293
150   9.95918967508158 -2.76747411022788
151   9.60971166432942 -2.93235089327093
152   9.24714434139968 -3.03051455452189
153   8.88695750673486 -3.07066529284114
154   8.53945438775326 -3.06357113831168
155   8.20979161042784 -3.01982538400585
156   7.89957053817502 -2.94850000827408
157   7.60838077932731 -2.85683290179257
158   7.33479232684552 -2.75040156168374
159   7.07686038409773 -2.63339686209846
160   6.83240480283485 -2.50888803895475
161   6.59931757134715 -2.37914300519493
162   6.37585589980741 -2.24598136368593
163   6.16068394565646 -2.11097981186991
164    5.9527455976297 -1.97551789109895
165   5.75116124162915 -1.84078271323935
166   5.55517797741795 -1.70777905218348
167   5.36414255273163 -1.57734195904085
168    5.1774789457667 -1.45014701082991
169   4.99466506110623 -1.32671785881251
170   4.81520875693888 -1.20743331143981
171   4.63862612619278 -1.09253710216036
172   4.46442553819898 -0.982152811983485
173   4.29209976690234 -0.876304543798162
174   4.12112649301485 -0.77494188880032
175   3.95097564136601 -0.677966432968018
176   3.78112102514393 -0.585256853400293
177   3.61105365019106 -0.496690292066958
178   3.44029447859128 -0.412158687393594
179   3.26840511351063 -0.331579700185324
180   3.09499552021957 -0.254902595950635
181    2.9197284627609 -0.182109909363312
182   2.74232083748368 -0.113215967302239
183    2.5625425923841 -0.0482634446458386
184   2.38021448096362 0.0126808985161926
185   2.19520645218793 0.0695303166387382
186   2.00743876207816  0.12218139996652
187   1.81688740129811 0.170516608794641
188   1.62359362417989 0.214406767210194
189   1.42767431454966 0.253714809605844
190   1.22932714362472 0.288301860885952
191   1.02882461508987 0.318035497186819
192  0.826495505951175 0.342798402006775
193  0.622698523568188 0.362494885404007
194  0.417796676969815 0.377053570137027
195  0.212139727780289 0.386426319585556
196  0.00605791177758003 0.390584950705427
197  -0.200134076379533 0.389517767710423
198  -0.40612649869201 0.383227578070105
199  -0.611602232014297 0.371732015998841
200  -0.816227771382067 0.355066006746806
201  -1.01965218970365 0.333285238453116
202  -1.22151700910588 0.306468788365635
203  -1.42147661866681 0.274718951219365
204  -1.61922438676712 0.238157192966288
205  -1.81451626711906 0.196916840544989
206  -2.00718438968595 0.151134645009873
207  -2.19713819920461  0.10094358119902
208  -2.38435665593558 0.0464680456055424
209  -2.56887777587481 -0.0121789571796184
210  -2.75079055547583 -0.0748978875686621
211  -2.93023126807783 -0.141605123164334
212   -3.1073835450297 -0.212236253705979
213  -3.28248043568239 -0.286749991721996
214   -3.4558065232324 -0.365131984884135
215  -3.62769859691873 -0.447397555767166
216  -3.79854393748721 -0.533592302696658
217  -3.96877578820107 -0.623789522438332
218  -4.13886604080894 -0.718083552795136
219  -4.30931561290055 -0.816578408456888
220  -4.48064347784142 -0.919371539220061
221  -4.65337583177446 -1.02653319591705
222  -4.82803736058553 -1.13808269057193
223  -5.00514682015935 -1.25396360084422
224  -5.18521892421283  -1.3740203807946
225  -5.36877367728208 -1.49797855992931
226  -5.55635290202772 -1.62542960224366
227  -5.74854230968826  -1.7558198521198
228  -5.94599688187769 -1.88844153199628
229  -6.14946844651671 -2.02242327850694
230  -6.35983849329797 -2.15671896132168
231  -6.57817057457887 -2.29009780575559
232  -6.80581266229426 -2.42114056329364
233  -7.04453203080752 -2.54820386680569
234  -7.29650175125365 -2.66923251626201
235  -7.56403993143984 -2.78140936964338
236  -7.84931578183329 -2.88081473017828
237  -8.15407275952341 -2.96213255958705
238   -8.4791473297676 -3.01834749895909
239  -8.82352805074771 -3.04051935147678
240  -9.18284349961189 -3.01798829386377
241  -9.54768680108532 -2.93958028145897
242  -9.90332384566277 -2.79586212626459
243  -10.2328596965507 -2.58002376935521
244  -10.5204000129575 -2.28366457034949
245  -10.7388600291604 -1.90472133721112
246  -10.8224752526347 -0.864859307090801
247  -10.7225852837751 -0.205785851128113
248  -10.6139451319679 0.293292673281618
249  -10.4304420098397 0.806117548381578
250  -10.0917053577552  1.37146106800767
251  -9.62097745788977  1.84895937876081
252  -8.69514730194548  2.37117693894569
253  -7.69208942073491  2.67920655138353
254  -6.74473774244456  2.89327433989335
255  -5.81735330391492  3.10835679306987
256  -4.89869594356954  3.35834506591603
257  -3.96926092840558  3.63624257175407
258  -3.00970718953373  3.90148135187764
259  -2.03854237285167  4.11249946386232
260  -1.08354096457644  4.25263492327807
