// Id               X                Y
  1  -0.092362322825884  3.39271160633626
  2  0.905083317942181  3.37050477710241
  3   1.92390467416048  3.29480149903086
  4   2.96320718242525  3.15867900959777
  5   3.88735070799825  2.94103197733669
  6   4.75520296905528  2.66611999921744
  7   5.64174276977205    2.452963457906
  8   6.54783309685118  2.32788013806109
  9   7.46119254435396  2.25262702637232
 10   8.37019201717834   2.1240507905316
 11   9.23123884923946  1.78954460577463
 12    9.6193166805684  1.43288463203436
 13    9.8533714687513  0.95006226281556
 14    9.8290591027878   0.4261863978412
 15   9.52709963000223 0.0268270460162165
 16    8.8027307475509 -0.0864343161453682
 17   8.34693078005277 0.0476012739882652
 18    8.2682316892026 0.0806031034588727
 19   8.20631366546925 0.108672716035906
 20   8.14749051964723  0.13699896684014
 21   8.08524295641798 0.168734527048492
 22   8.01192637585033 0.208339959338444
 23   7.92443662321449 0.258660062817745
 24   7.82306193136215 0.320891053749803
 25   7.70963907784778 0.395120099386686
 26   7.58639605562995 0.480674393974184
 27   7.45544048817986 0.576317244932853
 28    7.3186282507958 0.680350205807659
 29   7.17750554895735 0.790770941631182
 30   7.03309925973611  0.90562169788596
 31     6.885818153727  1.02326647464873
 32   6.73563877775774  1.14238582220241
 33   6.58231197777681  1.26188945226538
 34   6.42547540689524  1.38086420463619
 35   6.26471024826711   1.4985441082871
 36   6.09957481652554  1.61428569151358
 37   5.92962961642759  1.72754359450347
 38    5.7544629657726  1.83784516778619
 39   5.57372451586765  1.94476410208049
 40   5.38717009946201  2.04789564733253
 41   5.19471297345342  2.14683953213782
 42   4.99646755858588     2.24119770848
 43    4.7927702714296  2.33058934514013
 44   4.58417029395795  2.41467771816922
 45    4.3713943465539  2.49319893614818
 46   4.15529631983381  2.56598342866667
 47   3.93680327560131  2.63296561806307
 48   3.71686607107185  2.69418184350631
 49   3.49641821327715  2.74975957337772
 50   3.27634184771869   2.7999020167431
 51   3.05743558885618  2.84487194013446
 52   2.84037670460063  2.88497721253137
 53   2.62567432415376  2.92055838456281
 54   2.41362457996862  2.95197607878633
 55   2.20429306017993  2.97959554742642
 56   1.99754276752425  3.00376909500756
 57   1.79309805652842  3.02482070567019
 58   1.59061681865922  3.04303673088987
 59   1.38974835460708  3.05866312925961
 60   1.19016902994928  3.07190724268557
 61  0.991598194693235  3.08294161380882
 62  0.793800585728073  3.09190801920497
 63  0.596581212293881  3.09892076849046
 64  0.399777089983446  3.10406898236473
 65  0.203248456957654  3.10741794346556
 66  0.0068707393493594  3.10900977315207
 67  -0.18947240761014  3.10886370440074
 68  -0.385895239147431  3.10697615782245
 69  -0.582515802376021  3.10332072464578
 70  -0.779462198420956  3.09784804214457
 71  -0.976879728775983  3.09048543093123
 72  -1.17493905767034  3.08113606838672
 73  -1.37384485417048  3.06967742631427
 74   -1.5738433311059  3.05595874931798
 75  -1.77522562426221  3.03979756118097
 76    -1.978322196208  3.02097563915208
 77  -2.18348206083737  2.99923562891198
 78  -2.39103125303329  2.97428034302064
 79  -2.60121039192243  2.94577723264311
 80  -2.81410330706088  2.91336951621914
 81  -3.02958218549917  2.87669248036944
 82  -3.24729364272277  2.83539057829816
 83  -3.46668665215956  2.78913177232188
 84  -3.68705956693995  2.73761959807478
 85  -3.90760414891311  2.68060574598953
 86  -4.12744065329732  2.61790469048011
 87  -4.34564918077382  2.54940941219326
 88  -4.56130417167103  2.47510543354286
 89  -4.77351591711376  2.39507949926371
 90  -4.98147876633372  2.30951934432223
 91  -5.18452136330431  2.21870247986872
 92  -5.38215040435966  2.12297506994005
 93  -5.57407752494904  2.02272617657764
 94  -5.76022108697225  1.91836592559657
 95  -5.94068178589223  1.81031578911283
 96  -6.11570027265816  1.69901432106351
 97  -6.28561008228126  1.58493538179013
 98  -6.45079621678965  1.46861276805355
 99  -6.61166191154261  1.35066638577222
100  -6.76859932331524  1.23182799472109
101   -6.9219559460619   1.1129669430907
102  -7.07198351235483 0.995119786885293
103   -7.2187390936214 0.879539566797595
104  -7.36188526280791 0.767792729784429
105  -7.50045772877027 0.661823516771016
106  -7.63292674661363 0.563721048209229
107  -7.75747537295762 0.475314006450734
108  -7.87209857246708 0.397971884115686
109  -7.97470840381031 0.332506884214796
110  -8.06360437822143 0.278975716005877
111  -8.13858426046846 0.236287850567845
112  -8.20276494066966 0.201624760533834
113  -8.26375138664945 0.170343509209773
114  -8.32805356655666 0.139157311852584
115  -8.41049736299888 0.101934359560418
116   -8.8619123775064 -0.0479237945282893
117  -9.59154820847691 0.0288181775585226
118  -9.91713222469025 0.408849330375623
119  -9.97473200354058  0.92918986042678
120  -9.76984686847729   1.4243065322694
121  -9.39976037547541  1.79898065400296
122  -8.54805808611146  2.15927402427318
123  -7.63849886315284  2.29680315950572
124  -6.72186767673023   2.3686990055132
125  -5.80994379945157  2.48360298592981
126  -4.91426175581965   2.6851519527057
127    -4.034457235787  2.95246654557374
128  -3.11474444951279  3.16435093894154
129  -2.11117721866997  3.29039196114459
130   -1.0809277253368  3.34081745868127
131  -0.0923802438413505  3.98299325946915
132  0.873759669921888  3.96397403764597
133   1.83703284408863  3.88558521651592
134   2.79769082208909  3.74369733869103
135   3.77123643503772  3.53398842530845
136   4.73026732181102  3.28009740991945
137   5.65836238520661  3.06953644302698
138   6.59241051546681   2.9423344641713
139   7.53329284413942  2.86423024793518
140   8.47274969897557  2.72847308590554
141   9.35448553770856  2.36908390551135
142   9.79312145427632  1.97263924984477
143   10.1143337007479  1.41009960922515
144   10.2527689139549 0.746714402897307
145   10.2827386810196 0.0643114304327639
146   10.3931688849544 -0.583316705464408
147   10.4933943139118 -1.60111045164141
148   10.3094597461039 -1.99289869306323
149   10.0470726864158 -2.28655719985931
150    9.7356659957336 -2.49717237107981
151   9.39623383610749 -2.63406089382508
152   9.04877574162662 -2.70612568196283
153   8.70769066592134 -2.72490818247321
154   8.38068391147424 -2.70221900915775
155   8.07073409475305 -2.64823452297816
156   7.77819506780697 -2.57105044112357
157   7.50210690448298 -2.47691245294617
158   7.24083173074641 -2.37055835315232
159   6.99242057200635 -2.25553901558644
160   6.75503638934578  -2.1346065260349
161   6.52721379290413 -2.01005705614407
162    6.3077881054286   -1.883862794802
163   6.09577093793604 -1.75770063331383
164   5.89029932026413 -1.63297889399124
165   5.69062493428759 -1.51087033240154
166   5.49611344866873 -1.39234346077975
167   5.30624205180727 -1.27818780367378
168   5.12058866192829 -1.16903050088895
169   4.93880763462555 -1.06534309361165
170   4.76058992723715 -0.967440412311952
171   4.58561299979617 -0.87547817515443
172   4.41349370816946 -0.78945872468578
173    4.2437586583237 -0.709251329830684
174   4.07583900990792 -0.634626049456342
175   3.90908687597428 -0.565294047781568
176   3.74280475787695 -0.500945932868708
177   3.57627900700872 -0.441282110593956
178   3.40881094477323 -0.386032674684416
179   3.23974291628171 -0.334967261297737
180     3.068480328137 -0.287897070109118
181   2.89451432846279 -0.244671926679991
182   2.71745176662725 -0.205174768980274
183   2.53705498932527 -0.169314073103691
184   2.35328012930206 -0.137012395769101
185    2.1662886577189 -0.108189636172706
186   1.97641463389509 -0.0827444268936163
187   1.78409774831107 -0.0605410419620115
188   1.58980999885522 -0.0414069511173166
189   1.39399832413381 -0.0251404508490875
190   1.19705076777567 -0.0115241760341065
191  0.999283374225547 -0.000340050084561914
192  0.800941295921412 0.00861728128411624
193  0.602207834746271 0.015529843194879
194  0.403216820225085 0.0205487170022558
195  0.204065523338855 0.0237889948669216
196  0.00482674382761469 0.0253266938148834
197  -0.19444028351079 0.0251970662324445
198  -0.393679882530699 0.0233939047974749
199  -0.592830211541386 0.0198696479648098
200  -0.791813116729099 0.0145363147329106
201  -0.990523008936353 0.00726751764860162
202  -1.18881461881334 -0.00209799834698949
203  -1.38649020996291 -0.01375070634275
204    -1.583287945252 -0.0279019557052819
205  -1.77887464604617 -0.0447726337410657
206  -1.97284800349983 -0.0645792498758046
207  -2.16475472968546 -0.0875191517186903
208  -2.35413053223397 -0.113758257707786
209  -2.54056239518003 -0.143425855661764
210  -2.72376152704013 -0.176619928231756
211  -2.90362169382627 -0.213421989924845
212  -3.08023829577817 -0.253915196426304
213  -3.25388661945074 -0.298199110364882
214  -3.42498150108094 -0.346399372229576
215  -3.59404049745927 -0.398674210129426
216   -3.7616570300892 -0.455219026003843
217  -3.92847905348402 -0.516267957999109
218  -4.09518714018601 -0.582089922851539
219  -4.26246859261989 -0.65297655815378
220  -4.43098775891706 -0.729220453676423
221  -4.60135618146876 -0.811084018294432
222  -4.77410918034189 -0.89876215173528
223  -4.94969694077083 -0.992344817037108
224  -5.12849636688332 -1.09178690288372
225   -5.3108438578627 -1.19689047741633
226  -5.49708101824331  -1.3072987597077
227  -5.68760070522779 -1.42249541536767
228  -5.88288335229932 -1.54180122594985
229  -6.08352039523301 -1.66436293391371
230  -6.29022747687253 -1.78913288357713
231  -6.50385335803667 -1.91484068289638
232  -6.72539516488767 -2.03996027099064
233  -6.95604762785733 -2.16268068962952
234  -7.19733573323975 -2.28088434277307
235  -7.45125089316763 -2.39204651068641
236  -7.72004411687045  -2.4928863629496
237  -8.00574207358511 -2.57890334726451
238   -8.3097491740038 -2.64400939113697
239   -8.6322538460075 -2.68016243600023
240  -8.97096943359339 -2.67707324846348
241  -9.31903452114772 -2.62252517015998
242  -9.66291994363242 -2.50414503804506
243  -9.98329820499207 -2.31187063049933
244  -10.2599547221311 -2.03516198438791
245  -10.4645057232658 -1.65776218626454
246  -10.4209041801917 -0.63379404286146
247  -10.3485447638916 0.0192212563143314
248  -10.3606362033886 0.702197038954179
249  -10.2623001594732  1.37307901893999
250  -9.97133086608309  1.95312217887238
251  -9.53763450885812  2.37857525004885
252  -8.66347318669919  2.76114613887831
253  -7.72251458750629  2.90665438307092
254  -6.77860024703486  2.98195920403115
255  -5.84107485138996  3.09937338530688
256  -4.90947628247033  3.29900926139544
257  -3.95436070445448  3.54207258630788
258  -2.97193759433735  3.74645415435796
259  -2.01010758151732  3.87645098740848
260  -1.05211443644317  3.94912410020326
