// Id               X                Y
  1  -0.104042362023768  4.02770076603224
  2  0.845241125369634  3.98685018511647
  3   1.80176602133422  3.85315286969784
  4   2.76586127277483  3.62448088521281
  5    3.6622120812803  3.34786081167338
  6   4.51227979429271   3.0111637105967
  7   5.37441806288216  2.70792720246077
  8   6.25010678267405  2.44523191147566
  9   7.13030636789794  2.20730369175485
 10   8.00303515442109  1.96017411796015
 11    8.8554251181687  1.64801837759066
 12   9.29584434746103  1.38901022035186
 13   9.68290556709838  1.02701958379282
 14   9.93794148686127 0.452643059619831
 15    9.8051137973376 -0.0862428561778684
 16   9.10296739960307 -0.343093416270308
 17     8.608563015904 -0.243638146673903
 18   8.51391323916055 -0.210545632986821
 19   8.45508063727137 -0.18764023384713
 20   8.39766899214074 -0.163586187126511
 21   8.33980430766797 -0.137630095024056
 22   8.27518549030621 -0.10666018072841
 23   8.19908401975587 -0.0675150805326986
 24   8.10982948016046 -0.0180073810042473
 25     8.007903195745 0.0431329898410824
 26   7.89484867933041 0.116424819990697
 27   7.77253321517872 0.201777843582757
 28   7.64277374765695 0.298569537014946
 29   7.50725793932275 0.405641349218412
 30    7.3675650939962 0.521301997761916
 31   7.22495983571682   0.6436040401709
 32   7.08005732352873  0.77082440466468
 33   6.93287256468087 0.901622609178393
 34   6.78309654580612  1.03492414147978
 35   6.63026806665066  1.16983174879798
 36   6.47385326357335  1.30558632289191
 37   6.31329404974646  1.44153824156372
 38    6.1480464052052  1.57711885334633
 39   5.97761562325624  1.71181197868692
 40   5.80159050263565  1.84512815220026
 41   5.61967463455747  1.97658546612759
 42   5.43171050372877  2.10570024857018
 43   5.23769200698986  2.23198845127646
 44   5.03776308938604  2.35497563891704
 45   4.83220327242842  2.47421137925224
 46   4.62140343997726  2.58928346490455
 47     4.405836506736  2.69982853303786
 48   4.18602748170037  2.80553745476101
 49   3.96252641778577   2.9061555264896
 50   3.73588638117557  3.00147857014195
 51   3.50664730018378  3.09134648676658
 52   3.27532555040461  3.17563578514446
 53   3.04240839286236  3.25425235137916
 54    2.8083517944828  3.32712540773686
 55   2.57357962154519  3.39420329924231
 56   2.33848173093808  3.45545141773628
 57   2.10340836838331  3.51085213668142
 58    1.8686590936482  3.56040601676952
 59   1.63446681187888  3.60413284135551
 60   1.40098126339635  3.64207063434333
 61   1.16825959236845  3.67427128535141
 62  0.936271037463024  3.70079298556092
 63  0.704916831124412  3.72169156759748
 64   0.47405855337367  3.73701356569485
 65  0.243544504265208  3.74679272022631
 66  0.0132263418409439  3.75104970132027
 67  -0.217035881201466  3.74979347101493
 68  -0.447377119193476  3.74302254333611
 69  -0.677933386393828  3.73072514588779
 70  -0.908844112840973  3.71287840464542
 71  -1.14024563047161  3.68944771859884
 72  -1.37225385469405   3.6603880119372
 73  -1.60493941295904  3.62564808638758
 74  -1.83830341308497  3.58517779547237
 75   -2.0722629490053  3.53893607401181
 76  -2.30665070986358   3.4868973008397
 77  -2.54122602434046  3.42905452247117
 78  -2.77569051400083   3.3654198065284
 79  -3.00970208901787  3.29602317604837
 80  -3.24288423805821  3.22091175246094
 81   -3.4748306826082  3.14015024960874
 82  -3.70510721095408  3.05382331977889
 83  -3.93325297880408  2.96203973585561
 84  -4.15878333436421  2.86493804277189
 85   -4.3811957571439  2.76269305767611
 86   -4.5999799951787  2.65552237231292
 87  -4.81463295314277  2.54369179922417
 88  -5.02467824601239   2.4275185652474
 89   -5.2296895200886  2.30737111671228
 90    -5.429315669836  2.18366481250918
 91  -5.62330509733953  2.05685364154778
 92  -5.81152547078575  1.92741934082408
 93  -5.99397541387127  1.79586058314455
 94  -6.17078547250593  1.66268569779951
 95  -6.34220748968278  1.52841214165989
 96  -6.50859360109708  1.39357450710432
 97  -6.67036748523215  1.25874075534899
 98  -6.82799038044406  1.12453460542806
 99  -6.98192237095792 0.991661519457563
100  -7.13257538756034 0.860937165154946
101  -7.28024331201912 0.733324786311416
102  -7.42495246007679 0.610019988723959
103  -7.56620076715377 0.492586183860854
104  -7.70290571259811 0.382846048135631
105  -7.83368993101621 0.282471645816351
106  -7.95704419556166 0.192733316942671
107  -8.07133746295146 0.114444940877296
108  -8.17490792519644 0.0479262998387229
109  -8.26639261188329 -0.0070953647777181
110  -8.34540813419595 -0.0516682277207005
111  -8.41361335420435 -0.087877284782666
112  -8.47571940883025 -0.118985264003539
113  -8.53821507859857 -0.148469077925707
114  -8.60316853682158 -0.177150647077731
115  -8.71190102747764 -0.220655264659314
116  -9.20493502193895 -0.348149710547936
117  -9.92700290902701 -0.143717421919199
118  -10.1011149055381 0.374739841253035
119  -9.89346213140364 0.961866423261158
120  -9.53063266021688  1.34617770543016
121  -9.10318322904764  1.62444082214131
122   -8.2582181175742  1.95613892323403
123  -7.38495983794343  2.20411777624065
124  -6.49964275738022   2.4312810632885
125   -5.6152994889638  2.67890279246069
126  -4.74186854799976  2.96787613466399
127  -3.88159542297759  3.29641744793689
128  -2.97089492323561  3.59350259362872
129   -2.0094468353648  3.83228592635046
130  -1.05571975670577  3.95216090954262
131  -0.12868401824593  4.61628408481976
132  0.850094178878857  4.57753278657438
133   1.81763140575645  4.44259576931151
134   2.76960698205142   4.2221041023457
135   3.71120582769622  3.93543782521423
136   4.64289473271483  3.61101141269372
137    5.5507840669712  3.30126096404914
138   6.46496210006491  3.02592999462217
139   7.39854169750162  2.76476715149732
140   8.39160551249101  2.43569635316126
141   9.32680123942847  1.93057856930463
142   9.82022783703073  1.47808872560319
143   10.2002321155465 0.935740672538463
144   10.4302148541237 0.425603211577111
145   10.5783429474591 -0.0649992263516866
146   10.7206620246259 -0.696687613800311
147   10.7084666880384 -1.90068143094839
148   10.4960044462599 -2.29511181908221
149   10.2137393257817 -2.60266573672723
150    9.8877914119291 -2.82891093930672
151   9.53442942171206  -2.9821652367255
152   9.17043939972646 -3.06898256480878
153   8.81072652366369 -3.09831490705376
154   8.46504228165057 -3.08098477790593
155    8.1380651554076 -3.02748239860444
156   7.83104309565131 -2.94669976980114
157   7.54335780340502 -2.84569729428983
158   7.27349414961708 -2.72992642513365
159   7.01946035186262 -2.60349192843854
160   6.77895568836522 -2.46935039080155
161   6.54970743836962 -2.32963039226306
162    6.3299154856823 -2.18609480118931
163   6.11827945740959  -2.0403659532901
164   5.91377515446228 -1.89390658318861
165   5.71552925981752 -1.74799324480546
166    5.5227803759275 -1.60372081997432
167   5.33486288928066 -1.46201399729086
168   5.15119309023304 -1.32363703733719
169   4.97125170623676 -1.18920010838802
170   4.79456204879964 -1.05916333936191
171   4.62066629091707 -0.933841769072085
172     4.449104222038 -0.81341492937162
173   4.27939865159181 -0.697943467436303
174    4.1110497619291 -0.587392712106236
175   3.94353827117524 -0.481660777934929
176   3.77633537109264 -0.380607658526365
177   3.60891654899803 -0.284081917293452
178   3.44077646531375 -0.191942568057638
179   3.27144264338783 -0.104074962476105
180   3.10048646931288 -0.0204005671634654
181   2.92753069216175 0.0591187332184592
182   2.75225321349843 0.134480718133568
183   2.57438751105853 0.205645983841646
184   2.39372063504846  0.27254278735224
185    2.2100903815737   0.3350722812511
186   2.02338388354569 0.393113099639865
187    1.8335401175209 0.446524771743641
188   1.64055808243222 0.495150242845682
189   1.44451003833676 0.538818711258478
190    1.2455553896363 0.577350550201698
191   1.04394756503427 0.610565578354251
192  0.840026960632759 0.638294148098175
193  0.634199117753097 0.660388438932506
194  0.426905168157342 0.676730723558033
195  0.218595122640989   0.6872368849032
196  0.00971170396813717 0.691855861060251
197  -0.19931359905703 0.690567247015028
198   -0.4080556690908 0.683379344022068
199  -0.616088139687982 0.670328935030405
200  -0.822979626764149 0.651482628509349
201  -1.02829923917858 0.626938267534644
202  -1.23163352949097 0.596824167087234
203  -1.43261178081266 0.561294393181432
204  -1.63093143960031 0.520520055406594
205  -1.82637443346651  0.47467869315018
206  -2.01880976033389 0.423944698475641
207  -2.20818482696075   0.3684826775844
208  -2.39451230942797   0.3084437179756
209  -2.57785884428593  0.24396318898128
210  -2.75833864854837 0.175158539692282
211  -2.93611201705167 0.102126195330983
212   -3.1113869023637 0.0249374832318194
213  -3.28442137932699 -0.0563658245362612
214  -3.45552514857343 -0.141775374552562
215  -3.62505883622842 -0.231318352832359
216  -3.79343044023971 -0.325056696198933
217   -3.9610887900877 -0.423082330779934
218  -4.12851435714395 -0.525507611424054
219   -4.2962082323434 -0.632450548585537
220  -4.46468060184437 -0.744015036591139
221  -4.63444055449173 -0.860267124703885
222   -4.8059894017833 -0.981209269058404
223  -4.97981964938484 -1.10675518380257
224  -5.15642110375838 -1.23670798649832
225  -5.33629429261792 -1.37074351464603
226  -5.51996976383132 -1.50839906733718
227  -5.70803062165783 -1.64906601477656
228  -5.90113564850706 -1.79198360619841
229  -6.10004201367083  -1.9362314919133
230  -6.30563032905221 -2.08072006855725
231  -6.51894614616421 -2.22418325738865
232  -6.74131637655626 -2.36519886835721
233  -6.97457341298021 -2.50221782402246
234  -7.22104782317063 -2.63335922503747
235   -7.4831855140385 -2.75596535401136
236  -7.76325969599434 -2.86626622160332
237  -8.06317537338919 -2.95912735177815
238  -8.38405005253392 -3.02774956122338
239  -8.72531533406449 -3.06340046635051
240  -9.08322556604039 -3.05552962638357
241  -9.44916038479406 -2.99284509810843
242  -9.80926204747416 -2.86544845595287
243  -10.1475503980151 -2.66569497599611
244  -10.4490971448376 -2.38405804919513
245  -10.6873132045017  -2.0164405809869
246  -10.7953114860985 -0.819156402659996
247  -10.7021036395619 -0.178317114270374
248   -10.591823606404 0.321700399885107
249   -10.401765687999 0.840221821319282
250  -10.0578917456598  1.40462984736555
251  -9.58742429883892  1.88160278563755
252  -8.66633554273228  2.41513012148147
253  -7.67161477624675  2.75224282186102
254  -6.72731402323033  3.00686005789609
255  -5.80740877223449  3.26733295659358
256  -4.89737556635608  3.56303018885283
257  -3.97334923661482  3.88080881036622
258  -3.00979644656497  4.18271995699492
259  -2.05031710751276  4.41601638771971
260   -1.0907692891191   4.5597814241943
