// Id               X                Y
  1  -9.04871451429037e-05  0.89982636535029
  2  0.623990095943717 0.925276501404574
  3   1.24539493601122  0.99234806069013
  4   1.86326313127892  1.08675004276861
  5   2.47842610802858  1.19039118566088
  6   3.09173311251821  1.27954718164271
  7   3.70190537420088  1.33691212425295
  8   4.30466800207358  1.35432737084527
  9   4.89654329442939  1.33916471819697
 10   5.47879789842453  1.29759935986618
 11   5.91717912953759  1.20987045321816
 12    6.6312595776261  1.06954408800052
 13   7.17608232314014 0.910027485751049
 14   7.72797392324572 0.559956919841836
 15    7.8968378474399 0.0338999230354248
 16   7.33418351749963 -0.469320462674868
 17   6.82546363061054 -0.537863434891717
 18   6.75514607399025 -0.537641241243253
 19    6.7130533136305 -0.53648061437142
 20   6.67635072740108 -0.534868929821227
 21   6.64103943020186 -0.532812096219258
 22   6.59788249372396 -0.529650249734339
 23   6.54041019507797 -0.524386839429658
 24    6.4660953226713 -0.515918704026515
 25   6.37515550442338 -0.503240933908871
 26   6.26932253826259 -0.485668066298451
 27   6.15100608102194 -0.462990009706842
 28   6.02276781614331 -0.435504523996678
 29   5.88695584443646 -0.403920768470563
 30   5.74544871336774 -0.369181573975603
 31   5.59956409863469 -0.33229033866636
 32    5.4501344567277 -0.294201711377117
 33   5.29765019697831 -0.255772256719083
 34   5.14238745934823 -0.21774348802424
 35   4.98450126662105 -0.180739501450014
 36   4.82409259579535 -0.145271424088632
 37   4.66125855736615 -0.111744591594426
 38   4.49613015094822 -0.0804659329707486
 39   4.32889875816295  -0.0516503947324
 40   4.15983109758562 -0.0254265034986045
 41   3.98927246022928 -0.00184208288023
 42   3.81763918645265 0.019128537453464
 43    3.6454027279067 0.0375748354135877
 44   3.47306832260387 0.0536377934702486
 45   3.30115074330803 0.067495782730319
 46   3.13014804612594 0.0793500653864594
 47   2.96051293049365 0.0894114373763326
 48   2.79262173733121 0.0978891405660187
 49   2.62674389109265 0.104982557486455
 50   2.46301829780484  0.11087566267709
 51   2.30144470334283 0.115733916295744
 52   2.14189500532864 0.119703219147734
 53    1.9841430858871 0.122910552920393
 54    1.8279057260076 0.125465891221994
 55   1.67288482090514 0.127464890516239
 56   1.51880273666224 0.128991828280386
 57   1.36542622106694 0.130122299860043
 58   1.21257764475613 0.130925309617028
 59   1.06013459968983 0.131464557214797
 60  0.908020304503151 0.131798888656528
 61  0.756188386547939 0.131982028351214
 62  0.604606365574425 0.132061811450216
 63  0.453241936984633 0.132079175119564
 64  0.302054620511167 0.132067139122585
 65  0.150993123155404  0.13204993356472
 66  -2.96967008619845e-06 0.132042354380425
 67  -0.150999094532025 0.132049374196167
 68  -0.302060687582264 0.132066012730994
 69  -0.453248161939581 0.132077466201363
 70  -0.604612807444684 0.132059496278952
 71  -0.75619509860498  0.13197907445328
 72  -0.908027330732402  0.13179525417386
 73  -1.06014197070042 0.131460190193318
 74  -1.21258537383014 0.130920147251226
 75  -1.36543430120249 0.130116267706269
 76   -1.5188111393642 0.128984839429363
 77  -1.67289349721861 0.127456844698383
 78  -1.82791460997966 0.125456673819776
 79  -1.98415210028591 0.122900033892501
 80  -2.14190406895205 0.119691251939772
 81   -2.3014537386119 0.115720336920912
 82  -2.46302723682441 0.110860289277882
 83  -2.62675267840618 0.104965190794275
 84  -2.79263032850442 0.0978695657164681
 85  -2.96052128717475 0.0893894275007311
 86  -3.13015612959481 0.0793253873168211
 87  -3.30115850900362 0.0674682050709474
 88  -3.47307571760293 0.0536070972064094
 89  -3.64540969225196 0.0375408270989338
 90  -3.81764565811017 0.019091064806502
 91  -3.98927838248682 -0.00188311338544834
 92  -4.15983642691708 -0.0254711076127059
 93  -4.32890347000787 -0.0516984904777498
 94  -4.49613424061819 -0.0805173199571395
 95    -4.661262033396 -0.11179892944369
 96  -4.82409546334424 -0.145328209660845
 97  -4.98450349869066 -0.180798044927217
 98  -5.14238895335336 -0.217802889007005
 99  -5.29765071349573 -0.255831383455539
100   -5.4501335361818 -0.294259189112506
101  -5.59956095090117 -0.332344556912908
102  -5.74544207835817 -0.369230727792862
103  -5.88694383902041 -0.403962956525037
104   -6.0227478180007 -0.435537929976439
105  -6.15097470764546 -0.463013168400476
106  -6.26927573853922 -0.485680156538715
107  -6.37508882925071 -0.503242007795133
108   -6.4660045233992 -0.515909748381739
109  -6.54029215017835 -0.524369686195306
110  -6.59773631782849 -0.529626610448596
111  -6.64086722796158 -0.532785322323383
112  -6.67615733522313 -0.534837569107984
113  -6.71283841184893 -0.536448789968798
114  -6.75490092641529 -0.537606664318721
115  -6.82518063815193 -0.537828683909395
116  -7.33389140272128 -0.469304147459414
117   -7.8965997189131 0.033842580202277
118   -7.7279457619445  0.55987781804167
119  -7.17623840078673 0.910204718720908
120   -6.6315263511884  1.07001408710845
121  -5.91753294285538  1.21076005938595
122   -5.4792046469021  1.29874920950421
123  -4.89693479469577  1.34063072356863
124   -4.3049951353697  1.35601845419574
125  -3.70210902744619  1.33862340961623
126  -3.09176344050293  1.28092819173453
127  -2.47825129687493  1.19099277943882
128  -1.86283101065683  1.08646808313978
129  -1.24462692167371 0.992193091897507
130  -0.622864587763653 0.925487435360524
131  -0.00213621920420316  1.47238067550748
132  0.673036791669165  1.50323383060071
133   1.34355241224636  1.58521429206058
134   2.01081195547553  1.69076459524481
135   2.68071881408283  1.78740005185242
136   3.35821997499032  1.85507452295613
137   4.04539986219729  1.87273481821711
138   4.73965830476227  1.81748982128179
139   5.43137273652993  1.67332645385496
140   6.11693304972764  1.46580659873889
141   6.93936169670022  1.27665157213601
142   7.36284168284011  1.13176376482087
143   7.80935068439796 0.925571426588736
144   8.22406219530424 0.670857970105994
145   8.59666541305627 0.384291131649761
146   9.02590121076629 -0.0048586387047596
147    9.5051506510848 -0.718525593474154
148   9.58269439910712 -1.11193986778131
149   9.56404019274308 -1.47961143092516
150   9.46816619476823 -1.81956691353625
151   9.30753587127478 -2.12708194570461
152   9.09556523667523 -2.39481579457467
153   8.84798698903282 -2.61765689945712
154   8.57975513756976 -2.79554960125391
155    8.3025571658912 -2.93246072861883
156   8.02432970174729 -3.03424515850534
157   7.74989831856021 -3.10706117563805
158   7.48187126646524 -3.15655518741625
159   7.22144646726069 -3.18756228429222
160   6.96904759248804 -3.20408625262432
161   6.72473158085921 -3.20940705384445
162   6.48837252695268   -3.206213435634
163   6.25972129189444 -3.19671099425278
164   6.03843054189387 -3.18270195434503
165   5.82407563695679 -3.16564732456403
166   5.61617203822539 -3.14671881108451
167   5.41418650714909 -3.12684366335008
168   5.21754245840799 -3.10674393605317
169   5.02562218040477 -3.08697121464228
170   4.83776938998422 -3.06793762668115
171   4.65329498386784 -3.04994360196044
172    4.4714873413484 -3.03320239663374
173   4.29162685965504 -3.01786105780663
174   4.11300340751945 -3.00401743262998
175   3.93493556158649 -2.99173301998157
176   3.75679158126127 -2.98104176984675
177   3.57801298039005 -2.97195517035187
178   3.39814083781359 -2.96446406673974
179   3.21684205183503 -2.95853776872382
180   3.03392898848691 -2.95412132626379
181   2.84936447784426 -2.95113237353587
182   2.66324712895374 -2.94945928815643
183   2.47577838933091 -2.94896214684415
184   2.28721885181038 -2.94947703220552
185   2.09784372858943 -2.95082310933879
186   1.90790580855253 -2.95281111519116
187   1.71761057808301 -2.95525175348615
188   1.52710471629869 -2.95796284793899
189   1.33647682739673 -2.96077468728921
190   1.14576778593495 -2.96353354810261
191  0.954986917051267 -2.96610376697409
192  0.764129471418625 -2.96836889937509
193  0.573191107864752 -2.97023245567211
194  0.382176693700694  -2.9716185174562
195  0.191103039766925 -2.97247232548261
196  -2.99554646999264e-06 -2.97276079185166
197  -0.191109018017132 -2.97247284952798
198  -0.382182633172432 -2.97161957600039
199  -0.573196982080117 -2.97023406985789
200  -0.764135253653989  -2.9683711014912
201  -0.954992581464987 -2.96610660110527
202  -1.14577330949924 -2.96353707093801
203  -1.33648219223221 -2.96077896905017
204  -1.52710991166689 -2.95796797337991
205  -1.71761560114941 -2.95525782290132
206  -1.90791066315023 -2.95281824532012
207  -2.09784842149806 -2.95083143400777
208  -2.28722338641169 -2.94948670249188
209  -2.47578275690674 -2.94897333053129
210  -2.66325129844505 -2.94947216829307
211  -2.84936838557777 -2.95114714605208
212  -3.03393252990857 -2.95413819682147
213  -3.21684507721847 -2.95855694922299
214  -3.39814315293555 -2.96448577204026
215  -3.57801435157273 -2.97197961570172
216  -3.75679174276031   -2.981069169244
217  -3.93493422279757 -2.99176358537265
218   -4.1130002579643 -3.00405137360619
219  -4.29162157070311 -3.01789858135472
220  -4.47147956456622 -3.03324370648688
221  -4.65328434652427 -3.04998889713467
222  -4.83775548853386 -3.06798709885397
223  -5.02560457273238 -3.08702504412972
224  -5.21752065518189 -3.10680228625064
225  -5.41415996187525 -3.12690667360781
226  -5.61614013473218  -3.1467865881249
227  -5.82403767245416  -3.1657199328282
228  -6.03838570386527 -3.18277940624826
229  -6.25966862832711   -3.196793242364
230  -6.48831091229497 -3.20630037020182
231  -6.72465968483225 -3.20949851030732
232  -6.96896386309504 -3.20418203348689
233  -7.22134913438972 -3.18766219718829
234  -7.48175835461224 -3.15665909929632
235  -7.74976765883803 -3.10716908497275
236  -8.02417895350528 -3.03435729042617
237  -8.30238378493378  -2.9325776956781
238  -8.57955618438618 -2.79567278565404
239  -8.84775894795014 -2.61778928176482
240  -9.09530451149442 -2.39496320780214
241  -9.30724079348921 -2.12725396387601
242  -9.46784057860523 -1.81977533869186
243  -9.56369584861461 -1.47986521814365
244  -9.58234988217505 -1.11224378934146
245  -9.50483309787069 -0.718881202313241
246  -9.02567102683583 -0.00520185596804961
247  -8.59657913931327 0.383975413215726
248  -8.22408410477926 0.670633666252411
249  -7.80950910181481 0.925478381978538
250  -7.36313941594802  1.13185219336246
251  -6.93975685282563   1.2769467739787
252  -6.11745645283119  1.46654732295943
253  -5.43204561079356  1.67440873478383
254  -4.74045304793014  1.81881235984276
255  -4.04631271439798  1.87409060948664
256  -3.35932810757569  1.85611780140621
257   -2.6822045409661  1.78758214042002
258   -2.0129225982522  1.68920479561152
259  -1.34630253301937  1.58130247956698
260  -0.676003707644742   1.4997263778591
