// Id               X                Y
  1  -0.10270858678251  3.77982881185866
  2  0.824170523259519  3.74215475256993
  3    1.7565986491194  3.62073403296427
  4   2.69841200955049  3.41324306088828
  5   3.61863698627335  3.13575152138396
  6   4.48155836309054  2.82492719127482
  7   5.35706233510655  2.55183685019794
  8   6.24414083941747   2.3219260474217
  9   7.13372038567947  2.11685723788742
 10   8.01464708735441  1.89927317861244
 11   8.87495067813302  1.60954161148127
 12   9.31984725633192  1.35846811330214
 13    9.7110868123572  1.00013920816106
 14   9.96656125430165 0.424639088860632
 15   9.82664134562447 -0.11350558398576
 16   9.10968928739916 -0.351947742282168
 17    8.6004091605295 -0.241672426563774
 18   8.50091300235927 -0.206053424397231
 19   8.44189413703348 -0.182714861745305
 20   8.38459843089777 -0.158513823037035
 21   8.32701077074658 -0.13265071941365
 22   8.26260182411495 -0.10195292195732
 23    8.1865660391704 -0.0633298850667118
 24   8.09721310760665 -0.0147488172058921
 25   7.99498648804714 0.0448904297746589
 26   7.88136686114826 0.115956492742301
 27   7.75816103965352 0.198239112158929
 28   7.62714688915612 0.291032309087877
 29   7.48997161530365 0.393165681053147
 30   7.34812313859715 0.503065735765223
 31   7.20276384770375 0.618995767350937
 32   7.05450587585275 0.739398739077226
 33   6.90344597325578 0.863025470967407
 34   6.74937283102306 0.988866010163505
 35   6.59192086302002  1.11607630036645
 36   6.43065225123905  1.24393742748736
 37   6.26510857566212  1.37182618111691
 38   6.09485193216795  1.49918786853805
 39    5.9195018495544  1.62551126142387
 40   5.73876856122257  1.75030832738657
 41   5.55247996976846  1.87310172605017
 42    5.3605985585594  1.99342163042663
 43   5.16322562317464  2.11081100402618
 44   4.96059268282464  2.22483628560296
 45   4.75304245673512  2.33509951504423
 46   4.54100335090357  2.44124844075345
 47   4.32496170850333  2.54298253508169
 48    4.1054354116477  2.64005437213902
 49   3.88295127864615  2.73226697524077
 50   3.65802750951676   2.8194683460249
 51   3.43116143327934  2.90154452526816
 52   3.20282205381183  2.97841239200236
 53   2.97344630393237  3.05001315450405
 54   2.74343739564728  3.11630722249057
 55   2.51316317250579  3.17727088377076
 56   2.28295210671052  3.23289487633666
 57   2.05308500778737  3.28318446456804
 58   1.82378223855361  3.32816000582084
 59   1.59518940527288  3.36785648156657
 60   1.36736777873407  3.40232056715713
 61   1.14029625654186  3.43160489654026
 62  0.913887489599822  3.45576084030582
 63  0.688013869195584  3.47483216550682
 64  0.462534461838291  3.48885150655531
 65  0.237314669621451  3.49784005004512
 66  0.012234756683588  3.50180938817029
 67  -0.212812025135181    3.500763885967
 68  -0.43792806316342  3.49470213056467
 69  -0.663221843649709  3.48361673087715
 70  -0.888815044479137  3.46749260932043
 71  -1.11484157013741  3.44630477454892
 72  -1.34143562154711  3.42001715039308
 73   -1.5687095269944  3.38858400112537
 74  -1.79672691445711  3.35195454898515
 75  -2.02548016378597  3.31007979100329
 76  -2.25487975720489  3.26291929872777
 77  -2.48475722145816  3.21044592345604
 78  -2.71487710192157  3.15264771933785
 79  -2.94495107828124  3.08952790556022
 80  -3.17464918784295  3.02110437455773
 81    -3.403606509003   2.9474100658177
 82  -3.63142624326759  2.86849494263024
 83  -3.85768126056334  2.78442974822932
 84  -4.08191624778927  2.69531132434295
 85  -4.30365221167647  2.60126901307614
 86  -4.52239459062819  2.50247145116354
 87  -4.73764572685947   2.3991328607299
 88  -4.94892189278721  2.29151776788479
 89  -5.15577437105478  2.17994303316829
 90  -5.35781322131459   2.0647762933937
 91  -5.55473140448939  1.94643051690405
 92  -5.74632609361594  1.82535538177034
 93  -5.93251361137505  1.70202741142734
 94  -6.11333482804176   1.5769418185374
 95  -6.28894915144089  1.45060927676919
 96  -6.45961713951467  1.32356001872192
 97  -6.62567348690806  1.19635593786547
 98  -6.78749269423633  1.06960954247262
 99  -6.94544836792396 0.944007714183004
100  -7.09986296385296 0.820339478308809
101  -7.25093303631694 0.699534329487564
102  -7.39859015404103 0.582733804683821
103  -7.54230024950148 0.471376297460642
104  -7.68101350125096 0.367112437737095
105  -7.81336847759077 0.271501511749933
106  -7.93785374039002 0.185777794612079
107   -8.0528447703435 0.110772153881961
108  -8.15669595476639 0.0468659651621074
109  -8.24806045773312 -0.00611029695154252
110  -8.32656639585915 -0.0490696889509517
111  -8.39390683252623 -0.083962178025254
112  -8.45496473797586 -0.113997347525704
113  -8.51674353674273 -0.142806813813437
114  -8.58186886689182 -0.171424432907405
115  -8.69785942337089 -0.217889431140465
116  -9.20718968375597 -0.353865570933428
117  -9.94214293826915 -0.164876021933946
118  -10.1228195944644 0.346365273339578
119  -9.92644718243325 0.927293253220638
120  -9.57079685512612   1.3107577336629
121  -9.14899579954188   1.5862308784908
122  -8.30585985526417   1.9051204723524
123  -7.43426977619171  2.12922843037141
124  -6.55084655654132   2.3234215945091
125  -5.66764929918301  2.53234509915647
126  -4.79406092788791  2.78170795364856
127  -3.93427164651661  3.07448821264559
128  -3.07132023415566   3.3616139883421
129  -2.17031149733958  3.57280376178077
130  -1.13669143147126   3.6942728316145
131  -0.124903147457533  4.36523561468844
132   0.86079378333475  4.33347895808821
133   1.82648202782555  4.20674372491087
134   2.77158032673106  3.99670364158532
135   3.70227798724712    3.723239463054
136   4.62100651443469  3.42433688465146
137   5.53216292351191  3.14552274735078
138    6.4535503171817  2.90456425600262
139   7.39624884387675   2.6770102893476
140    8.4004596014133  2.37725568782294
141   9.34644612928451  1.88982177099754
142   9.84493479323961  1.44136349907385
143   10.2270700425561 0.899636821165824
144   10.4574574026885 0.389310753482611
145   10.6057883517786 -0.099632629371306
146   10.7546144633427 -0.747395696996368
147   10.7468051347898  -1.8208292424921
148   10.5472475529348 -2.22510697677059
149   10.2736180734411  -2.5428704171388
150   9.95296271223555 -2.77940379719656
151   9.60230626446259 -2.94276069877958
152   9.23899133659303 -3.03924191677619
153   8.87843823049975 -3.07765364460225
154   8.53087093736933 -3.06882876151514
155   8.20136044800594 -3.02338444638278
156   7.89143741819054 -2.95038999197996
157   7.60064612653313 -2.85707153866861
158   7.32753534043397 -2.74899792971998
159   7.07014523649582  -2.6303534973951
160   6.82626038197707 -2.50418907368136
161   6.59372408740566 -2.37274229507739
162   6.37077388141399  -2.2378184079475
163   6.15608323785454  -2.1010033293887
164   5.94860700795593 -1.96369364077147
165   5.74747007358101 -1.82709317887814
166   5.55192026349254 -1.69222240422807
167   5.36130398916088 -1.55993128998384
168    5.1750454212786 -1.43090960583748
169   4.99262400695352 -1.30569422399456
170   4.81355061572385 -1.18467566671711
171    4.6373453301836   -1.068107158605
172   4.46352062018335 -0.956118892741442
173    4.2915725352318 -0.848738351274901
174   4.12098046890151 -0.745915349772438
175    3.9512141007018 -0.647549029925233
176   3.78174500166034 -0.55351371735934
177   3.61206018420546 -0.463681162719688
178   3.44167528864005 -0.377937699184954
179     3.270145763731 -0.296195854285944
180   3.09707506943582 -0.218400728748391
181   2.92211951130796 -0.144531956577115
182   2.74498982860643 -0.0746023367274321
183   2.56545017422559 -0.00865434237358079
184    2.3833157038245 0.0532442950659611
185   2.19845059744329 0.111004877869435
186   2.01076872966983 0.164521208951711
187   1.82023886952393 0.213672140953495
188   1.62689459499883  0.25832392008992
189   1.43084593760042 0.298333701404992
190   1.23228650811212 0.333555532999801
191   1.03148938242654  0.36384888868682
192  0.828789303971011 0.389088008065576
193   0.62455569728316 0.409169290400223
194  0.419165503964066 0.424014727563765
195  0.212984030257468 0.433571266780195
196  0.00635753576769178 0.437807664734329
197  -0.20038334381722 0.436710998336244
198  -0.406913173628392 0.430284622587352
199  -0.612899401364716 0.418548470287446
200  -0.817993528743578 0.401541520576525
201  -1.02183064855788 0.379325221630359
202   -1.2240404364507 0.351985882873157
203  -1.42426903179567 0.319633980311015
204  -1.62220632670434 0.282399337601996
205  -1.81760971355181 0.240423024812837
206  -2.01031654084291 0.193848403957165
207  -2.20024339856372 0.142813810482384
208  -2.38737665394178 0.0874479124607728
209  -2.57176107988403 0.0278671100062103
210  -2.75349161736111 -0.0358264326454942
211  -2.93270993222798 -0.103547273966093
212  -3.10960484198253 -0.175230110943743
213  -3.28441460268694 -0.250833817887582
214  -3.45742906175455 -0.330345325442818
215  -3.62899018660588 -0.41378231736994
216  -3.79949007095759 -0.501193650166551
217  -3.96936604710867 -0.592656444875069
218  -4.13909299345385 -0.688268955767644
219  -4.30917337762733 -0.788138618383959
220  -4.48012606541665 -0.892365163532178
221  -4.65247544897094 -1.00101937087966
222  -4.82674291127487 -1.11411885978702
223    -5.003442853881 -1.23160307701388
224  -5.18308522744213 -1.35331001155098
225  -5.36618556589399  -1.4789568052306
226    -5.553282073886 -1.60812522254567
227  -5.74495790765915 -1.74025123844521
228  -5.94186625415935 -1.87461655311935
229  -6.14475693037315 -2.01033941268594
230  -6.35450706353903 -2.14636330365489
231  -6.57217025176114 -2.28144704167431
232  -6.79908439324329 -2.41416738420761
233  -7.03703361921023 -2.54290031734889
234  -7.28823839642875 -2.66562902536042
235   -7.5550546664765 -2.77956593292323
236  -7.83967305251784 -2.88081020481066
237  -8.14386578709702 -2.96406634932731
238  -8.46852346272665 -3.02234273553877
239  -8.81271759546799 -3.04671444313456
240  -9.17218083153177 -3.02650991786574
241  -9.53761283519983 -2.95049891312475
242  -9.89436666959339 -2.80914393165754
243  -10.2256260274633 -2.59549243519727
244  -10.5156187011405 -2.30093035156143
245  -10.7372773087795 -1.92299384797686
246   -10.823233029625 -0.856395234940376
247  -10.7239418885907 -0.200426440124672
248  -10.6148400332356 0.298737272741217
249  -10.4305649398067 0.811543549604175
250  -10.0913206286193  1.37637860539578
251   -9.6209421870945   1.8536733846614
252  -8.69629159257044  2.37765276787968
253  -7.69490485820378  2.69005586040762
254  -6.74884161966421  2.90991703977233
255  -5.82274774835527  3.13166952501713
256  -4.90591032514649  3.38885662000631
257   -3.9790979227793  3.67415213692958
258   -3.0129101597058  3.94856865137841
259   -2.0409569088656  4.16269509155802
260  -1.08721592435543  4.30172290412624
