// Id               X                Y
  1  -0.16600940532714  3.24249886195835
  2  0.774172457209008  3.20059041805822
  3   1.69253797111231  3.08538641113478
  4   2.60550861032931  2.90167684657056
  5   3.50791011513508  2.64887788439413
  6   4.39237449361935  2.40241289808846
  7   5.28491443324521  2.19741543385539
  8   6.18162867979213  2.04074041464439
  9   7.07610110033118  1.91485527176186
 10   7.95714057403972  1.75734945825497
 11   8.75581616866747  1.44940457184263
 12   9.13276054476437  1.18670962928603
 13   9.43963684681222 0.846060557662542
 14    9.6135719202863 0.411444261239785
 15   9.54096721885354 -0.0416156771579864
 16   8.88261584536368 -0.426032366017637
 17   8.34262402707658 -0.389096662159518
 18   8.24102781289019 -0.364899142463878
 19   8.18332529530937 -0.348736294637575
 20   8.12692635345908 -0.331279173143978
 21   8.06963260683674 -0.311872405670398
 22   8.00433067069633 -0.28775513636967
 23   7.92607866844894 -0.256093852675945
 24    7.8334628458809 -0.214852390249071
 25      7.72740811786 -0.162809807486944
 26   7.60994870353381 -0.0995010532821994
 27    7.4834381205515 -0.025146607971205
 28    7.3501347107651 0.0594262616336733
 29   7.21201126465504 0.152895370624523
 30    7.0706312799439  0.25363031361748
 31   6.92703562844968 0.359949105793905
 32   6.78172617002901  0.47032712656824
 33   6.63478178311397 0.583471213482159
 34   6.48600716983955 0.698309465572054
 35   6.33504139155906  0.81396354144847
 36   6.18142396743454 0.929722422377752
 37   6.02463537017113  1.04501687137429
 38    5.8641250774004  1.15939269958232
 39   5.69933669929133  1.27248185711752
 40   5.52973808635132  1.38397086596753
 41   5.35486164002196  1.49356775237472
 42   5.17435352182661  1.60097217129346
 43   4.98802150644269  1.70585650595174
 44    4.7958666068065  1.80786413471948
 45   4.59808820793714  1.90662431631287
 46   4.39506263420867  2.00177635394982
 47   4.18730331774419  2.09299362033941
 48   3.97541345347946  2.18000061262905
 49   3.76004037146071  2.26258049779959
 50   3.54183741426697  2.34057408969672
 51    3.3214357521246  2.41387296542468
 52   3.09942609396348  2.48240972930755
 53   2.87634869946393   2.5461479142854
 54   2.65268917043223  2.60507323463521
 55   2.42887691589168  2.65918716736731
 56   2.20528293217132  2.70850318969029
 57   1.98221402685611  2.75304534526308
 58   1.75990253005816  2.79284810009341
 59   1.53849409093452   2.8279558710278
 60   1.31803991249572  2.85842064788288
 61   1.09850058048383  2.88429716350149
 62  0.879764354464942  2.90563670188137
 63  0.661675594301953  2.92248170579615
 64  0.444064116158293  2.93486299936956
 65  0.226766738612072    2.942800029638
 66  0.00963662194655268  2.94630312493432
 67  -0.207459062361754  2.94537611639397
 68  -0.424649099774212   2.9400178493786
 69  -0.642070051155124  2.93022183680526
 70  -0.859873754787038  2.91597425467462
 71  -1.07822523511807  2.89725137536119
 72  -1.29728824104648  2.87401807518908
 73  -1.51719994569767  2.84622889630795
 74  -1.73804139837332  2.81383211288651
 75  -1.95981326951883   2.7767757234364
 76  -2.18242438687125  2.73501325635095
 77  -2.40569407751932   2.6885075939618
 78   -2.6293630079589  2.63723246482571
 79  -2.85310531568488  2.58117268587132
 80  -3.07653731791874  2.52032478442543
 81  -3.29922193936292  2.45469932089518
 82  -3.52067075683057  2.38432556280739
 83  -3.74034666703235  2.30925849704799
 84  -3.95767019547899  2.22958758215049
 85  -4.17203198718585  2.14544605895342
 86  -4.38281329605002  2.05701901312556
 87  -4.58941522618873  1.96454783218398
 88  -4.79129583915715  1.86832854705681
 89   -4.9880118895983  1.76870227497529
 90  -5.17925913229426  1.66603799690373
 91  -5.36490276110582  1.56071110311338
 92  -5.54498925212834   1.4530843835769
 93  -5.71973446554332  1.34349923223122
 94  -5.88949028383695  1.23228192664862
 95  -6.05469955932872  1.11976392342133
 96   -6.2158511736056  1.00631030439187
 97  -6.37344216810677 0.892350032453822
 98  -6.52794658876024 0.778404414445558
 99  -6.67978544657512  0.66511299539116
100  -6.82928927950037 0.553257762680313
101  -6.97664166380365 0.443787817739481
102  -7.12178911445765  0.33784631634164
103  -7.26431602878273 0.236787698260699
104  -7.40333522185578 0.142136463119426
105  -7.53747399737545 0.0554387003744682
106  -7.66495114180705 -0.0219497902739244
107  -7.78368791879256 -0.0890490281282143
108  -7.89148655322657 -0.145390950890425
109   -7.9864113284711 -0.191137667702464
110  -8.06754387159632 -0.227218198693407
111  -8.13623177989979 -0.255508853075814
112  -8.19750951876498 -0.278955978393507
113  -8.25931178801709 -0.300857732335124
114  -8.32489028325461 -0.322141735990774
115   -8.4462834809602 -0.356150988574609
116  -8.99033266732633 -0.421609764816974
117  -9.68144049477439 -0.0907088914397619
118  -9.79472273199199 0.351166355564462
119  -9.66182745271684 0.796800825373482
120  -9.38594443285341  1.15840497807847
121  -9.02960292283204  1.44276867275078
122  -8.24557288478823   1.7777220937255
123  -7.37523634390913  1.94006337714557
124  -6.49057840964835  2.05116948568888
125  -5.60328773441413  2.18138166706007
126  -4.72101937122912  2.36005260953181
127  -3.84964115569158  2.58864123586469
128  -2.98526680828998  2.85049282970092
129  -2.08495485296186  3.04942858715393
130  -1.12491977613472  3.16320488941005
131  -0.0941766011785552   3.8232570511951
132  0.864091118192942  3.78746712895975
133   1.81283451097993  3.66568226720869
134   2.74743838221252  3.47332021568286
135    3.6676817170798   3.2358676042828
136   4.58289137950824  2.99118560553677
137   5.50877740930914  2.77493416170453
138   6.49418001477243  2.57468676178049
139   7.53131494149452  2.33444892733039
140   8.55415339043572  1.95471763894847
141   9.50505984472678  1.33071773073013
142   9.73057382935358  1.09365755121608
143   9.93106488596281 0.837313861057635
144    10.100650430049 0.579808737741661
145    10.252182882048 0.319907303156518
146   10.3991013641429 0.0537194388944114
147     10.88524600044  -1.1648812125792
148   10.8184869765875 -1.63884056167547
149   10.6467928491042 -2.04040413095404
150   10.3993605843983 -2.37301088627595
151   10.0966706785825 -2.63794582543033
152   9.75840860174202 -2.83556251181039
153   9.40319108419303  -2.9694305173336
154   9.04533527021499 -3.04696407619634
155   8.69402689426228  -3.0772648812784
156   8.35434614582981 -3.06924116455539
157   8.02864612602845 -3.03073467341072
158   7.71760176921149 -2.96831149981298
159   7.42087442378698  -2.8873307952986
160   7.13756712349308 -2.79211472611091
161   6.86658868098254 -2.68617184930212
162   6.60687704897182 -2.57241196558039
163    6.3574520005986  -2.4532859581214
164     6.117397403809 -2.33086122705577
165   5.88585249652796 -2.20687404364176
166   5.66202067896629 -2.08277706107577
167   5.44518365699869 -1.95978320854547
168   5.23471189946366 -1.83890314617779
169    5.0300658555957 -1.72097335113098
170   4.83078365107158 -1.60667270039738
171   4.63645299998887 -1.49652759027605
172   4.44667054323289  -1.3909098594702
173   4.26099935264461 -1.29003618552911
174    4.0789386356164 -1.19397792657401
175   3.89991465370966 -1.10268502459861
176   3.72329250758592 -1.01602057117066
177   3.54840165520544 -0.933798825379258
178   3.37456643788218 -0.855819870451724
179   3.20113480011453 -0.781896733351352
180   3.02750129746369 -0.711873584793619
181    2.8531229348439 -0.645635596041516
182    2.6775279937751 -0.583112054254528
183   2.50031899502989 -0.524274700331609
184   2.32117164401162 -0.469133238679808
185   2.13983222324166 -0.41772973421388
186   1.95611631624633 -0.370133173869608
187   1.76991144924667 -0.326434776289867
188    1.5811844707892 -0.286743721123432
189   1.38999103472599 -0.251182161280386
190   1.19648087863803 -0.219878299738507
191   1.00089186803461 -0.192957389075504
192  0.803530111222039 -0.17053223141323
193  0.604740613187526 -0.152695739286289
194  0.404877718831206 -0.139517449545076
195  0.204284027555884 -0.131044089621989
196  0.00328205337223678 -0.12730266866932
197  -0.19782205944791 -0.12830392043127
198  -0.398726962655765 -0.134044259445082
199  -0.599122630096356 -0.144505340393806
200  -0.798681321668196 -0.159651464228427
201  -0.997058429750682 -0.179426173388459
202  -1.19390614478541 -0.203750103599549
203  -1.38889854939384 -0.232522097126635
204  -1.58176164924548 -0.265624456793249
205  -1.77229881825177 -0.302931385993664
206  -1.96040407570215 -0.344318255159804
207  -2.14606202643994 -0.389669441875173
208  -2.32933962446786 -0.438883954293672
209  -2.51037688386002 -0.491879574626013
210  -2.68938124394312 -0.548596793919425
211  -2.86662651298035 -0.609003340659164
212  -3.04245465745409 -0.67309923072945
213  -3.21727773668055 -0.740921482505183
214  -3.39157742676857 -0.812547118450251
215  -3.56590015288872 -0.888092788241377
216  -3.74084651273258 -0.967709256587656
217  -3.91705443071199  -1.0515691474374
218  -4.09517654271894 -1.13984688515953
219   -4.2758539112184 -1.23269094424734
220  -4.45969031920172 -1.33019042603496
221    -4.647233528694  -1.4323403158837
222  -4.83897061249864 -1.53901146766277
223  -5.03534191645886 -1.64993070844632
224  -5.23677187279196 -1.76467243269368
225  -5.44370781010332  -1.8826573142267
226  -5.65665532150536 -2.00315027326154
227   -5.8762024404324 -2.12525087616168
228  -6.10303104116298 -2.24787305527673
229  -6.33791827736362 -2.36971424547705
230  -6.58173321532887 -2.48921555941192
231  -6.83543645326864 -2.60451468456909
232  -7.10009245220642 -2.71338997462276
233  -7.37688869138119 -2.81318075959664
234  -7.66710098701649 -2.90064823582783
235  -7.97191539594241 -2.97175806393989
236  -8.29209893074826 -3.02142927393021
237  -8.62754340428674 -3.04331271662617
238  -8.97659436943218 -3.02966076343989
239  -9.33500738601365 -2.97145325282701
240  -9.69453718883691 -2.85914866435455
241  -10.0417428505781 -2.68446954404672
242   -10.358525987013 -2.44273207209789
243  -10.6254884883912  -2.1327414793046
244  -10.8233708210992 -1.75215653519796
245  -10.9249169296308 -1.29840176318465
246  -10.5469044453817 -0.0634788728589079
247  -10.4230679316499   0.2127351369972
248  -10.2944078992191 0.482870201548509
249  -10.1474937096854 0.751690408565032
250  -9.96810232880862   1.0225664310057
251  -9.76096307284435  1.27511329699455
252  -8.84894166486605  1.95237180279229
253  -7.83374565550231  2.35583503429066
254  -6.79294961521012  2.59097945248856
255  -5.78787288685761  2.77233533983201
256  -4.85160489844624  2.96586602803356
257  -3.92059660184771  3.19746620123879
258   -2.9659399422989  3.43857540611917
259   -2.0070749210886  3.63651273779123
260   -1.0509221106698  3.76760580946969
