// Id               X                Y
  1  -1.62099155062887  16.3858556830535
  2  -0.848432567844863  16.9965842996242
  3  0.252521730724501   17.047954831666
  4   1.31094583540968  16.8187476240442
  5   2.30425212650788  16.3823164174868
  6   3.18805180780163  15.7787083537666
  7   4.02538352981733  15.1123434508276
  8   4.84214891441972  14.4151461729542
  9   5.66451600775187  13.7231839271058
 10   6.50810751050229  13.0538613303285
 11   7.38029877972723  12.4192281405627
 12   7.93679035820935  12.0321237975535
 13   8.49035695904878  11.6402014987788
 14   9.02252765626649  11.2205542241647
 15   9.50159494914648  10.7426665397445
 16   9.91298289964846  10.1183352284645
 17   10.1142947722204    9.797402857317
 18   10.3059017434107  9.46509498535929
 19   10.4769570909782  9.11854532761517
 20   10.6144240134952  8.75571274239847
 21   10.7035846548247   8.3793891106081
 22   10.7311401971243  7.99707101592338
 23   10.6872631557803  7.62077551503153
 24    10.567134843574  7.26636550286393
 25     10.37213440974   6.9518114200864
 26   10.1101404732822  6.69463837661217
 27   9.79462088755724  6.50936997329332
 28   9.44282112194635  6.40570063765116
 29   9.07359734749722  6.38758594497573
 30   8.70517949611837  6.45315207685574
 31   8.35305737326266  6.59545143158637
 32    8.0284175309145  6.80403855845033
 33   7.73755724573338  7.06695949407472
 34   7.48229445965384  7.37253850221349
 35   7.26099713169475  7.71054576043064
 36   7.06976890383774  8.07268603466338
 37   6.90347653508834  8.45258399654709
 38   6.75649750770162   8.8454972328925
 39   6.62319644290626  9.24793736354416
 40   6.49819416068433  9.65730390702247
 41   6.37650021578041   10.071575863705
 42   6.25356595894277  10.4890711335957
 43   6.12529704319458  10.9082681459343
 44   5.98804883861767  11.3276792683786
 45   5.83861721876587  11.7457656457084
 46    5.6742302179747  12.1608847546286
 47   5.49254208164737  12.5712637011713
 48    5.2916292193478   12.974992679957
 49   5.06998673979462  13.3700340288392
 50   4.82652407067194  13.7542430410641
 51   4.56055832294783  14.1253972395254
 52   4.27180436802063  14.4812312485437
 53   3.96036096029019  14.8194747678789
 54   3.62669260688871  15.1378914939307
 55   3.27160723098264  15.4343171646743
 56   2.89622997535287  15.7066952385074
 57   2.50197373391738  15.9531090550641
 58   2.09050717001784  16.1718096632601
 59    1.6637210765397   16.361238828165
 60   1.22369395519684  16.5200470308573
 61  0.772657647387635  16.6471065410907
 62  0.312963748595178  16.7415198603428
 63  -0.152948602683392  16.8026239951229
 64  -0.622583135609045  16.8299911240713
 65  -1.09341480446162  16.8234262685017
 66  -1.56291600650345  16.7829625694927
 67  -2.02858072164909  16.7088547232689
 68  -2.48794675555132  16.6015710401524
 69  -2.93861635457929  16.4617844815937
 70   -3.3782755119622  16.2903629055983
 71  -3.80471229907279  16.0883586237294
 72  -4.21583453671048  15.8569972523414
 73  -4.60968707250613  15.5976657351774
 74  -4.98446885797438  15.3118993309788
 75  -5.33854992933984  15.0013673039056
 76  -5.67048829816893  14.6678570303772
 77  -5.97904665998321  14.3132562458182
 78  -6.26320874089764  13.9395331993634
 79  -6.52219503357718  13.5487145626788
 80  -6.75547763376101  13.1428610477458
 81  -6.96279388558655  12.7240408233357
 82  -7.14415858453478  12.2943009756879
 83  -7.29987457517408  11.8556374305881
 84  -7.43054171842311  11.4099639383891
 85  -7.53706438886608   10.959080921052
 86  -7.62065789497695  10.5046451970983
 87  -7.68285449407747  10.0481418495262
 88  -7.72551000497387  9.59085980359664
 89     -7.75081241793  9.13387306349456
 90  -7.76129438341799  8.67803005566036
 91  -7.75985204087977   8.2239541967537
 92  -7.74977329975382  7.77205974499963
 93  -7.73477927204293  7.32258840357623
 94  -7.71908270940638   6.8756744086829
 95  -7.70746620416067  6.43144961852605
 96  -7.70537898684622  5.99020636262256
 97  -7.71904157308252  5.55264533172111
 98  -7.75552770347094  5.12024788441346
 99  -7.82275658308529  4.69582124094866
100  -7.92926944343322  4.28425477492102
101  -8.08358695384556  3.89346264012411
102  -8.29288537381932  3.53532557039594
103  -8.56079430775825  3.22616033044285
104  -8.88447755866237  2.98594016927311
105  -9.25188975554322  2.83550734071224
106  -9.64082894969434  2.79181913870414
107  -10.0211948949096  2.86273283390966
108  -10.3602694831555   3.0436864116888
109  -10.6291674706906  3.31776832695099
110  -10.8083668397437  3.65907935078339
111  -10.8908213882991  4.03831016274984
112  -10.8818556904714  4.42875496347934
113  -10.7961716999956  4.81081074401183
114  -10.6529459321494  5.17422330955347
115  -10.4701977894953  5.51793355688788
116  -10.2631429092356  5.84442771309583
117  -9.82051726637301  6.44949641067063
118  -9.30108274897922  6.89879996738641
119  -8.73065387647356  7.28228652222064
120  -8.14409676952388  7.64001094227041
121  -7.55801655135792  8.00277461111066
122   -6.6911564991771   8.6336843762622
123  -5.89201542377691  9.35124013737707
124  -5.17659170869332  10.1510984106873
125  -4.55133257724523  11.0222955855065
126  -4.01232108174004  11.9473260808715
127  -3.54078543615851    12.90401695651
128  -3.10324405273505  13.8667859323155
129  -2.66118846779183  14.8000426573176
130  -2.19279760696148  15.6451476210121
131  -1.55951782295594  16.9935247716131
132  -0.567854740220298   17.471093584849
133  0.508150207888574  17.5768306880288
134   1.55524558404025  17.3601479127715
135   2.52678054580739  16.9194927281637
136    3.4201302412072  16.3350651457705
137    4.2565627533245  15.6733536023687
138   5.06641304337609  14.9830189824911
139   5.87417620135706  14.2974777832054
140   6.69261456329164  13.6352680091526
141   7.52457217625581  12.9978295892985
142   8.04273040700876  12.6128644147914
143   8.56440641028704  12.2317375728406
144   9.08575957225842  11.8547385153855
145   9.58414156024823  11.4965136589349
146   9.96955599567782  11.2195018091092
147   10.5875414882954  10.6871330400243
148   11.0492043512771  10.1535335617041
149   11.3870811510123  9.61177673345636
150    11.619620196927  9.05667096057656
151   11.7526728435875  8.48390016779164
152   11.7809750915384  7.89801219195845
153   11.6952613758308  7.31468842367249
154   11.4894256683294  6.75867273542617
155   11.1655384098818  6.25975974838562
156   10.7362703979991  5.84788363277543
157   10.2246373471977  5.54805274248646
158   9.66117662288449   5.3760707240111
159   9.07923498370811  5.33619158290335
160   8.50982686559828  5.42141352759819
161   7.97764841439588   5.6160384659392
162   7.49906571934703  5.89934078215852
163    7.0819999108532  6.24920009403942
164   6.72717092491411  6.64497164862049
165   6.43005340320867  7.06927834675387
166    6.1829539017724   7.5087306140558
167   5.97678340392027  7.95381105259114
168   5.80232291658488   8.3982620533541
169   5.65097718085998  8.83828753784138
170   5.51512562426181  9.27178163922858
171   5.38821069693161   9.6976911170163
172   5.26468388564796  10.1155402496024
173   5.13989224265325  10.5251037008488
174   5.00995341234914   10.926196264852
175   4.87164229706231     11.3185472079
176   4.72229762757605  11.7017324077152
177   4.55974904477695  12.0751445089163
178   4.38226199628555  12.4379875241437
179   4.18849673737463  12.7892869953402
180   3.97747776122947  13.1279100376838
181     3.748570426087   13.452591636245
182   3.50146210135154  13.7619648007003
183    3.2361457039926  14.0545928961797
184   2.95290400135111  14.3290028701812
185    2.6522935073087  14.5837183283383
186   2.33512719450259  14.8172915643294
187   2.00245558591276  15.0283337727853
188   1.65554607410371  15.2155427954877
189   1.29586054471248  15.3777278815006
190  0.925031551946923  15.5138310823498
191  0.544837408744665  15.6229450492198
192  0.157176615762205  15.7043271424067
193  -0.235957933098212  15.7574098948286
194  -0.632504557502719  15.7818079826555
195  -1.03035785555142  15.7773219403371
196  -1.42739294839068  15.7439389104593
197  -1.82148871013155  15.6818307401158
198  -2.21054986998457  15.5913497271031
199  -2.59252794376759  15.4730222861703
200  -2.96544100495855  15.3275407546025
201  -3.32739233792432  15.1557534954615
202  -3.67658802737694  14.9586533938211
203  -4.01135353061297  14.7373647836418
204  -4.33014925700048  14.4931287965076
205   -4.6315851484733  14.2272870925427
206  -4.91443422254509  13.9412639206288
207  -5.17764501317977  13.6365464597263
208  -5.42035283244203  13.3146634138903
209  -5.64188978466826  12.9771618670539
210  -5.84179350208336  12.6255824451586
211  -6.01981464329099  12.2614328771979
212  -6.17592331102623  11.8861600871876
213  -6.31031471090788  11.5011209799285
214   -6.4234145982088  11.1075520993814
215   -6.5158853572675  10.7065383367569
216  -6.58863394544898  10.2989808499224
217  -6.64282343683165  9.88556434550615
218  -6.67989056242959  9.46672392049049
219  -6.70157253309982  9.04261187106695
220  -6.70994765641287  8.61306546866634
221  -6.70749596646753  8.17757806832061
222  -6.69718841537907  7.73527872064609
223  -6.68261609302872  7.28493076851096
224  -6.66817381942107  6.82496926315874
225  -6.65931320019443  6.35361231351352
226  -6.66287383252832  5.86910410402228
227  -6.68747808847313  5.37017591517246
228  -6.74391996021857   4.8568370305185
229  -6.84537693738395  4.33160573781558
230  -7.00712778651658  3.80121614004494
231   -7.2453193518875  3.27862938850364
232   -7.5743245170517  2.78480790656067
233  -8.00256423872108  2.34927341132116
234  -8.52742692542577  2.00827169439527
235  -9.13085688687372  1.79980753734619
236  -9.77769721649058   1.7559614961074
237  -10.4185175296347  1.89429559477004
238  -10.9974114475496  2.21127502547693
239  -11.4630858562232  2.68091870651114
240  -11.7791771944625  3.26031906538439
241  -11.9292092165803  3.90047880349782
242  -11.9136840916955  4.55837567483429
243  -11.7400612151077  5.20521112929796
244  -11.4109628706355  5.82560575580683
245   -10.920500959662  6.40835030008257
246  -10.2525643050868  6.94860086219568
247  -9.85296201257103  7.20582538492242
248  -9.35423196947733   7.5200058564618
249  -8.82016266359403  7.85697893123106
250   -8.2912348219111  8.20078557922317
251  -7.77855980710161  8.55356423600866
252  -6.96332221080903  9.17738244374905
253  -6.20549495597749  9.87438981645567
254  -5.51980528605182  10.6554115642826
255  -4.91650764578081  11.5122960694474
256  -4.39077332767932  12.4290577648966
257  -3.92111111937882  13.3863723310896
258   -3.4679516516909  14.3629257254182
259  -2.97133710573743  15.3304723658442
260  -2.35369485852519  16.2361070632431
