// Id               X                Y
  1  -0.102212121661533  3.75486125140161
  2  0.822235492924675  3.71740495821536
  3    1.7519764043868  3.59711289732701
  4    2.6910429055272  3.39169066913991
  5   3.61399180964205  3.11294906436255
  6   4.47910349196958  2.80612648958696
  7   5.35691029593925  2.53762726454933
  8   6.24602112733495   2.3124617205151
  9   7.13725781833722  2.11124804213102
 10   8.01954068845843   1.8966114635131
 11   8.88375349491622  1.61239034569342
 12   9.33155155286682  1.36287269077526
 13   9.72759808631095  1.00012719521237
 14   9.97510365158525 0.426415712413329
 15    9.8268129838813 -0.111124834425273
 16   9.10870301791527 -0.343846139562337
 17   8.60046494597779 -0.233447240310935
 18   8.50042591890745 -0.197791785010779
 19   8.44096088455486 -0.174394949206814
 20   8.38344949460833 -0.150235566993831
 21   8.32578908342244 -0.124497107386485
 22   8.26135944709839 -0.0939970891926923
 23   8.18531610123017 -0.0556606139440362
 24   8.09594573672269 -0.00747501940585944
 25   7.99366984618617 0.0516454579437978
 26   7.87994664766522 0.122064342710572
 27   7.75656390324446 0.203575324328166
 28   7.62528808304927 0.295483291350675
 29   7.48776196508659 0.396635750529868
 30   7.34547296479091 0.505485036122728
 31    7.1995901275072 0.620321169737945
 32   7.05074094614175 0.739606425644246
 33   6.89903979812186 0.862104782950265
 34   6.74429188369526 0.986816005241267
 35   6.58614759147248  1.11290253106509
 36   6.42418514445093  1.23964884187122
 37   6.25796244561826  1.36643255824653
 38   6.08705819792472  1.49269805177251
 39    5.9111085138036  1.61793237701678
 40    5.7298394949723  1.74164605076215
 41   5.54309321030022   1.8633614488626
 42   5.35084357400634  1.98261016577453
 43   5.15319978993293  2.09893835834823
 44   4.95039742417338  2.21191707917639
 45   4.74277953328145  2.32115380921638
 46   4.53077169426165  2.42630193644184
 47   4.31485501809819  2.52706626310285
 48   4.09554056177817  2.62320406816342
 49   3.87334745302129  2.71452233063865
 50   3.64878590585761  2.80087228131791
 51   3.42234535170909  2.88214257580179
 52    3.1944871811938  2.95825224530151
 53   2.96564101549951  3.02914434261918
 54   2.73620290872028  3.09478094814255
 55   2.50653341536158   3.1551399387694
 56   2.27695323981444  3.21021358701973
 57   2.04773469454888  3.26000857178324
 58   1.81908901087433  3.30454637301431
 59   1.59115269408429  3.34386255832519
 60   1.36397914481418  3.37800364137243
 61   1.13754190018463  3.40702130784938
 62  0.911751455570367  3.43096539428215
 63  0.686481015808764  3.44987790922221
 64   0.46159250446879  3.46378985980244
 65  0.236955176014587  3.47272116284958
 66  0.0124534180196473  3.47668258035915
 67  -0.212015401676454  3.47567808626094
 68  -0.436549536603484  3.46970630413456
 69  -0.661253258478535  3.45876031896325
 70  -0.886244128012847  3.44282598592782
 71   -1.1116526433667  3.42187966121715
 72  -1.33761134442371  3.39588685464014
 73  -1.56423376355616  3.36480331908514
 74  -1.79158821342301  3.32857925562012
 75  -2.01967487852359   3.2871658148668
 76  -2.24841391315265  3.24052182322259
 77  -2.47764687641193  3.18861865461387
 78  -2.70714762313991  3.13144242543891
 79  -2.93663602057644  3.06899418608473
 80  -3.16578929830026  3.00128954373661
 81  -3.39424908063268  2.92835903969536
 82   -3.6216248046464  2.85025005573699
 83   -3.8474954739231  2.76703046380676
 84  -4.07141185768703   2.6787938304132
 85  -4.29290089272793  2.58566571910645
 86  -4.51147355809706  2.48781042350453
 87  -4.72663699117483  2.38543726353454
 88  -4.93791106381609   2.2788054085598
 89   -5.1448489602555   2.1682261395274
 90  -5.34706045772821  2.05406165892122
 91   -5.5442356735067  1.93672012295572
 92  -5.73616621116818  1.81664752816552
 93  -5.92276023030216  1.69431826379791
 94  -6.10404829790885  1.57022714286324
 95  -6.28017808567386  1.44488603309372
 96  -6.45139778370078  1.31882748083756
 97  -6.61802977559734   1.1926161099209
 98   -6.7804367079617  1.06686681531603
 99  -6.93898081204213 0.942267871534226
100  -7.09397322221326 0.819608308338264
101  -7.24559778744093 0.699816507924533
102  -7.39376789832366 0.584033617283608
103  -7.53792308812526 0.473698439739853
104   -7.6769899752843 0.370454007447998
105  -7.80959878258933 0.275838705455854
106  -7.93424133013416 0.191060412873834
107  -8.04930281780586 0.116925051650881
108  -8.15315295006664 0.0537933532092788
109  -8.24446428360087 0.00148266842913146
110  -8.32288601016673 -0.0409218579192961
111  -8.39013057964902 -0.0753563010968195
112  -8.45109367058512 -0.104997310397507
113  -8.51278557183639 -0.133436470164191
114  -8.57785427551513 -0.161704477457705
115   -8.6931332305909 -0.207379220532598
116  -9.20146531596096 -0.341742213187639
117  -9.93601142967822 -0.154674496550241
118  -10.1212136470899 0.357914379676187
119  -9.93739867315043 0.924185289424251
120  -9.57960376367639  1.31320794863197
121  -9.15626713566182  1.58801655219606
122  -8.31033154102523  1.90218301944792
123  -7.43882183394479  2.12406973997092
124  -6.55580707607551  2.31510180580804
125  -5.67331760294828  2.51949751954957
126  -4.80088140142452  2.76390873643461
127  -3.94274806697539  3.05150707711059
128  -3.07984170686047  3.33260778857124
129  -2.17835740219156  3.54176325531419
130  -1.13999840388462  3.66624288408257
131  -0.122664956850764  4.33960801258755
132  0.862598861902566  4.30891828823163
133   1.82757774278554  4.18278679188988
134   2.77180807881834  3.97356547351919
135   3.70073997672137  3.70152850220055
136   4.61813333141515  3.40593008005151
137   5.52938784461683   3.1320359827365
138   6.45087130652445  2.89676045317016
139   7.39121356743972  2.67557321350451
140   8.39455842427557  2.38179150985558
141   9.33835148730423  1.89762731118953
142   9.85724562492512  1.42764522588913
143   10.2452303200844 0.862685697173587
144   10.4678562045095 0.355484737623132
145   10.6044989598894 -0.0939302917291203
146   10.7590833872695 -0.768209729329544
147   10.7416764785766 -1.82070307137765
148   10.5415586944192 -2.22282443575495
149   10.2678565950143 -2.53902484320309
150   9.94742155809968 -2.77441054304929
151   9.59712030125129 -2.93698810293493
152   9.23425746852451 -3.03300789598714
153   8.87422304267739 -3.07125806131266
154   8.52720554587656  -3.0625549622984
155   8.19824578298391 -3.01749157464786
156   7.88885299209903 -2.94510799067207
157   7.59855592293062 -2.85259876080378
158    7.3258901871134 -2.74549937041796
159   7.06888668661217  -2.6279610938995
160    6.8253278006191 -2.50300588937707
161   6.59305711614331 -2.37284573614504
162   6.37031093125318 -2.23925999315399
163   6.15576417137028 -2.10381027013347
164   5.94837730943531 -1.96787260143077
165   5.74728280979387 -1.83263383091762
166   5.55173618715119 -1.69910028501779
167   5.36109052245828 -1.56811008095512
168   5.17477500440173 -1.44034302507494
169   4.99227229895201 -1.31632782570105
170   4.81309503246642  -1.1964488354298
171   4.63676427836815 -1.08095543715255
172    4.4627935510195 -0.96997655719404
173   4.29068069208197 -0.863540962805296
174   4.11990803996033 -0.761601956366818
175   3.94994944980623 -0.664063761157282
176   3.78028171112095 -0.570806653559569
177   3.61039774863583 -0.481708498475128
178   3.43981940190597 -0.396661319298662
179   3.26810821917357 -0.315582488411688
180   3.09487334337167 -0.238420858487985
181   2.91977612910096 -0.165158631271617
182   2.74253163125147 -0.0958100243726698
183   2.56290761792084 -0.0304179074510876
184   2.38072233375211 0.0309504326072076
185   2.19584282440263 0.0882073907098671
186   2.00818597161375 0.141248355269678
187   1.81772396126673 0.189954190556701
188   1.62449412085361 0.234193630780596
189   1.42860992058667 0.273826927669218
190   1.23026693379841 0.308711926936715
191   1.02973750032188 0.338712496616126
192  0.827352307870878 0.363707503820388
193  0.623473717168519 0.383597696258301
194  0.418469582498227 0.398308675515323
195  0.212695180875194 0.407789989254609
196  0.00648653416486824 0.412011904030877
197  -0.199835897753735 0.410961935050195
198  -0.405956835996627 0.404642828754431
199  -0.611553944904282   0.3930728480976
200  -0.816288835793511 0.376288211013545
201  -1.01980598595406 0.354346550323544
202  -1.22174266925001 0.327329513061047
203   -1.4217496643763 0.295342489920664
204  -1.61951785383135 0.258510353490073
205  -1.81480225076187 0.216969842930294
206   -2.0074356389774  0.17086083788293
207  -2.19732932133751 0.120318991368351
208  -2.38446471564309 0.065470907006618
209  -2.56888236925782 0.00643139208958669
210  -2.75067358456968 -0.056698537274794
211  -2.92997661781309 -0.12383405909578
212  -3.10697676300565 -0.194909819540016
213  -3.28190842388193 -0.26988382825033
214  -3.45505720233857 -0.348741235303988
215  -3.62676049441468 -0.431496997381947
216  -3.79740566532131 -0.51819635945757
217  -3.96742540186973 -0.608912116350231
218  -4.13729030173609 -0.703737766482241
219  -4.30749920544573 -0.802775955798252
220  -4.47856825649804 -0.906122074407175
221   -4.6510201860247 -1.01384352890212
222   -4.8253757748404 -1.12595600945144
223  -5.00214966556644  -1.2423988166988
224  -5.18185244736769 -1.36301169782869
225  -5.36500006298323 -1.48751533517417
226  -5.55213021272048 -1.61549651395577
227  -5.74382407137088  -1.7463973740255
228  -5.94073109296092  -1.8795067288897
229  -6.14359574528038 -2.01395096027531
230  -6.35328886504904 -2.14868312457481
231  -6.57085869151704 -2.28247402696576
232  -6.79764354347091 -2.41391686672926
233  -7.03543756500749 -2.54140853377822
234  -7.28647081749151 -2.66295046321354
235   -7.5530973750624 -2.77576683268417
236  -7.83749991304325 -2.87596738749535
237  -8.14144304513089 -2.95826944716728
238  -8.46581131616652 -3.01569648666566
239  -8.80967309757973 -3.03934086935337
240  -9.16876242824354 -3.01854980363414
241  -9.53378623403372 -2.94211147811681
242  -9.89011040964367 -2.80050445626347
243  -10.2209328993132 -2.58679336879318
244  -10.5105069283469 -2.29239167654212
245  -10.7318457357927  -1.9148391297842
246  -10.8219494302473 -0.867339762475931
247  -10.7165811224165 -0.185316051529545
248   -10.614531564718 0.272691543318134
249    -10.44061008233 0.770695993801529
250  -10.0997968075482  1.35741909222397
251  -9.61082749310082  1.85942969053257
252  -8.68888966145796  2.38223533231442
253  -7.68815354281607  2.69022837744143
254   -6.7446185921562   2.9047100190824
255    -5.818466951048  3.12131201420389
256  -4.90067911175373  3.37314401838943
257  -3.97199922578476  3.65306012054007
258  -3.01179532378596  3.92053059203065
259  -2.04049611378409  4.13288302782014
260  -1.08572979274051  4.27357741060146
