// Id               X                Y
  1  -0.10259958897592   3.7612364113366
  2  0.822547963961111  3.72369331551642
  3   1.75276108057144  3.60305249871192
  4   2.69204541427405  3.39703252457167
  5   3.61397581604531  3.11835853688439
  6   4.47887988805443  2.81096682308561
  7    5.3563589593525  2.54167080040111
  8   6.24498793046135  2.31552506916077
  9   7.13567356327619  2.11363577390534
 10    8.0172484162918  1.89778825978361
 11   8.87750327074897   1.6075089260633
 12   9.32170758179466  1.35503645949115
 13    9.7112512688548 0.994644805354502
 14   9.96253949621757 0.417299622397965
 15   9.81768725373653 -0.119690936794631
 16   9.09804401947985 -0.351167362573389
 17   8.58886701017954 -0.237178655823036
 18   8.48817930860614 -0.200540093932691
 19   8.42893007661345 -0.176783684147769
 20   8.37146471970366 -0.152187033870511
 21   8.31382152106351 -0.126022051191389
 22   8.24956804423566 -0.0950960027543245
 23   8.17389315368872 -0.0563608248754405
 24   8.08507860667698 -0.00779491539626206
 25   7.98351417453143 0.0516715772469215
 26   7.87062468256434 0.122387566492113
 27   7.74816426395522 0.204133764854232
 28   7.61786436407004 0.296210834106375
 29    7.4813264171236 0.397476333733902
 30    7.3399914752051 0.506406846510766
 31   7.19499504304716 0.621315946688684
 32    7.0469568037589 0.740674991744671
 33   6.89599458295135 0.863250385764858
 34   6.74191536325159 0.988046099660904
 35   6.58436893748447  1.11423023435731
 36    6.4229322519582  1.24109254274531
 37    6.2571623363689  1.36801448049153
 38   6.08663828654862  1.49444222709991
 39   5.91099862492648  1.61986236330463
 40   5.72997433722051  1.74378279528838
 41   5.54341481951672  1.86572170006632
 42   5.35130319570184  1.98520569516231
 43   5.15375881987479  2.10177601228842
 44   4.95102728703837  2.21499945689159
 45   4.74346063160429  2.32448025148665
 46   4.53149171969693  2.42986952508302
 47   4.31560696360475  2.53087062888014
 48    4.0963207319678  2.62723992306976
 49   3.87415368266229  2.71878373516934
 50   3.64961610088721  2.80535271107622
 51   3.42319638715028  2.88683486744542
 52   3.19535413716266  2.96314849178333
 53    2.9665167085849  3.03423578498811
 54   2.73707767937677  3.10005788593757
 55   2.50739515665614  3.16059166016445
 56   2.27778768583616  3.21582830845834
 57     2.048526003206  3.26577337876798
 58   1.81982064233537  3.31044716935292
 59   1.59180848602295  3.34988405220227
 60   1.36454436126496  3.38412940476488
 61    1.1380039873891  3.41323392552408
 62   0.91210034961142  3.43724667880572
 63  0.686709048065659  3.45620913107116
 64  0.461694089041762  3.47015194778619
 65  0.236926462352913  3.47909485753301
 66  0.0122920072681094  3.48304854614178
 67  -0.212310652228855   3.4820169947483
 68  -0.436978613438696  3.47599889915608
 69  -0.661814959311081  3.46498747418334
 70  -0.886935827677162   3.4489687755038
 71  -1.11246980569318  3.42791947736886
 72  -1.33854683022923   3.4018056080078
 73  -1.56527715457115  3.37058373198543
 74  -1.79272550056275   3.3342052065647
 75   -2.0208888043661  3.29262264823539
 76  -2.24968498787073   3.2457965432055
 77  -2.47895478505381  3.19369998025571
 78  -2.70847263083179  3.13632074703309
 79  -2.93796009262365  3.07366148685458
 80  -3.16709684087823  3.00573933235971
 81  -3.39552733762413  2.93258630590961
 82  -3.62286398130031  2.85425123701672
 83   -3.8486886310703  2.77080340425444
 84  -4.07255457474045  2.68233772140342
 85  -4.29399066188255   2.5889810295379
 86  -4.51250885898279  2.49089885030464
 87  -4.72761600948892   2.3883017541493
 88  -4.93883006046899  2.28145031807758
 89  -5.14570036714827  2.17065757482521
 90  -5.34783086339213  2.05628802016691
 91  -5.54490394624705  1.93875277571104
 92  -5.73670205675721  1.81850144054108
 93  -5.92312345833514  1.69601235807792
 94  -6.10418895143064  1.57178408992674
 95  -6.28003738602771   1.4463312996565
 96  -6.45090962253138  1.32018761635135
 97  -6.61712234668897  1.19391646427856
 98  -6.77903388161685  1.06812902159666
 99    -6.937002982619  0.94350748067617
100  -7.09133739789012   0.8208330606467
101  -7.24221643112963 0.701026068796542
102  -7.38954913785102 0.585219405564978
103  -7.53278589936846 0.474834261053604
104   -7.6708930221281 0.371480769156199
105   -7.8025501496575 0.276668608187124
106   -7.9262903950904 0.191596378143135
107  -8.04053440756272 0.117077577797624
108  -8.14368669324068 0.053490935053605
109   -8.2344541525226 0.000676234320793193
110  -8.31251470311247 -0.0422621601429184
111  -8.37959371245193 -0.0772547463604664
112  -8.44056493083984 -0.107492712365297
113  -8.50235001913609 -0.136580190031511
114  -8.56750829991629 -0.165528487923416
115  -8.68458788659041 -0.213036117578324
116  -9.19368913790709 -0.352347436185558
117  -9.93062906086501 -0.169756755396098
118  -10.1155479458407 0.339926067767035
119  -9.92382219298764 0.921344353572198
120  -9.57067722443391  1.30658681221308
121  -9.15046593823843  1.58344429635211
122  -8.30836883245263  1.90321857762965
123  -7.43740943172339  2.12606374730656
124  -6.55466481539669  2.31739300887416
125  -5.67232726624178  2.52251523539785
126  -4.79985179106646  2.76767584941595
127  -3.94154644353337  3.05607069411532
128  -3.07883232017099   3.3385294077243
129  -2.17752734743415  3.54848270143932
130  -1.13979522141944  3.67286499387108
131  -0.122793800093874  4.34599326562805
132  0.863447453165666  4.31504296387236
133   1.82896020724316  4.18854262223286
134   2.77363465580174  3.97886799183468
135   3.70308956133825  3.70635167862666
136   4.62091029994559  3.41003511602546
137   5.53260737564083   3.1349924019929
138   6.45509095394772  2.89787468147006
139   7.39972183204728  2.67305756262981
140    8.4050621384839  2.37420743000878
141   9.35065648670044   1.8848678154242
142   9.84743682342483  1.43393690033204
143   10.2263382852649 0.889454325525619
144   10.4530429049207 0.376629271158356
145     10.59717137484 -0.113589093948883
146   10.7403398861397 -0.763602199332713
147   10.7221298398526 -1.83277726575208
148   10.5202202671365 -2.23334727662418
149   10.2453262140132 -2.54791169615759
150    9.9243496539255 -2.78155835408338
151   9.57403005511868 -2.94246382102127
152   9.21143988410717 -3.03700134160124
153   8.85179635433887 -3.07396640197773
154   8.50520506844089 -3.06413408238172
155    8.1766813654861 -3.01805682444611
156   7.86773245960032 -2.94474864157945
157   7.57789100893367 -2.85139024994435
158    7.3056996350296 -2.74351206290797
159   7.04920385413471 -2.62526903085123
160    6.8062079337495 -2.49969500956118
161   6.57456734301236    -2.36901199012
162   6.35250756294882 -2.23499657072298
163   6.13868488442417 -2.09920024666463
164   5.93204615124555 -1.96298933268258
165   5.73171537772892  -1.8275424994712
166   5.53694262615804 -1.69385874890167
167   5.34707710192029 -1.56276917436854
168   5.16154461159528 -1.43494637167377
169   4.97982404192566 -1.31091125447513
170   4.80142327585715  -1.1910396582738
171   4.62585756736182 -1.07557195595915
172   4.45263387474053 -0.964628121452962
173   4.28124338213886 -0.85822871754036
174   4.11116237515746 -0.756320206670891
175   3.94185984608836 -0.65880173084236
176   3.77280927264692 -0.565550368490376
177   3.60350194156677 -0.476442560930126
178   3.43345965615169 -0.391370416534101
179   3.26224533004277 -0.310252559961562
180   3.08947060998479 -0.233039911873518
181   2.91480021685304 -0.159717238101691
182   2.73795317705428 -0.0903015498973164
183   2.55870160849159 -0.0248385313147292
184    2.3768682793362 0.0366018527450313
185   2.19232472626811 0.0939295718092588
186   2.00499205220165 0.147037925659809
187    1.8148461144032   0.1958060787531
188   1.62192707815862 0.240101463340387
189   1.42635023421825 0.279783379175045
190   1.22831200039245 0.314708968278212
191   1.02808489060024 0.344741523165259
192  0.825999549727609 0.369759378962778
193  0.622418476277455 0.389662778891119
194   0.41771004790271  0.40437688974428
195  0.212230467419821 0.413850958237304
196  0.00631700121604069 0.418055140130632
197  -0.199708436432031 0.416977068801441
198  -0.405529019481971 0.410619861083454
199  -0.610820927645111 0.399002409085119
200  -0.815244576582896 0.382161796873091
201  -1.01844381798711 0.360156693957421
202  -1.22005610230232 0.333069840865738
203  -1.41973319742063  0.30100764894104
204  -1.61716744275603 0.264095858035026
205  -1.81211512930697 0.222471949078199
206  -2.00440946030763 0.176276554398862
207  -2.19396089333972 0.125646268052234
208   -2.3807487210268 0.0707089595514906
209  -2.56481035472078 0.0115810824099786
210  -2.74623331299334 -0.0516343375814198
211  -2.92515174280913 -0.118850166346791
212  -3.10174674474709 -0.189998520601446
213  -3.27624862762467 -0.265034768914183
214  -3.44893916320151 -0.343941444630766
215  -3.62015236626962 -0.426731092228904
216  -3.79027288684142 -0.513446984129008
217  -3.95973160662699 -0.604160673327828
218  -4.12899847249112 -0.698965479924647
219  -4.29857302745115 -0.797965275308675
220  -4.46897356577809 -0.901258370836754
221  -4.64072634821322 -1.00891696238501
222  -4.81435679034792 -1.12096338036063
223  -4.99038480778052 -1.23734517404439
224  -5.16932632841807  -1.3579115121332
225  -5.35170218667513 -1.48239316057038
226  -5.53805427191722   -1.610387238149
227  -5.72896739614287 -1.74134630694824
228  -5.92509468886715 -1.87456982754142
229  -6.12718529403152 -2.00919541039691
230  -6.33611708228181 -2.14418842292541
231  -6.55294975767659 -2.27833376988543
232  -6.77903715523497 -2.41023945103167
233  -7.01617864367617 -2.53830946863507
234  -7.26658582733767   -2.660540445579
235  -7.53259041808882 -2.77415439096451
236  -7.81636657014706 -2.87527061014771
237  -8.11968073236149 -2.95862494643206
238  -8.44342405050584 -3.01726670469971
239  -8.78667943777114 -3.04232384648868
240  -9.14521934106121 -3.02319034681445
241  -9.50984045910252 -2.94870140488552
242  -9.86607367472366  -2.8093488106254
243  -10.1973446651905 -2.59813741254222
244  -10.4881245463106 -2.30638409311595
245  -10.7113671672582 -1.93198063429305
246  -10.8062820237072 -0.869908809667579
247  -10.7123184081492 -0.212194640469687
248  -10.6072597194725 0.287947282250208
249  -10.4268247974193 0.802352335583771
250  -10.0910033373217  1.36970180837208
251  -9.62249992223582  1.84948080749236
252  -8.69867094957063  2.37566535518149
253  -7.69649469732798  2.68758262864853
254  -6.74908147145113  2.90507688337994
255  -5.82208447938327  3.12321064564558
256  -4.90406772103919  3.37617939932918
257  -3.97552076847333  3.65715780023973
258    -3.013341497905  3.92629431880475
259  -2.04078887556868  4.13948887744891
260  -1.08601380407168  4.28019787181476
