// Id               X                Y
  1  -0.0994409770585601  3.27132422063852
  2  0.846474521002854  3.25212391092542
  3   1.86562025541802  3.11728230155193
  4   2.78540638035653  2.91670491715359
  5   3.67066480708751  2.66747378265388
  6   4.55038043875637  2.43146822412509
  7   5.44686939105929  2.24441816022005
  8   6.35545460116944  2.10235463491446
  9   7.26827606997276    1.969537385977
 10   8.17655900058174   1.7851365637837
 11   9.06463532178194  1.48084846270122
 12   9.50920814390064   1.1772516648432
 13    9.8378491927416 0.743801366801691
 14   9.91790442528691 0.268667767730295
 15   9.73442830406529 -0.139603786999868
 16   8.91936675270603 -0.336960162150244
 17   8.40699456843081 -0.207679216952992
 18   8.30059748657151 -0.168055846905447
 19   8.24105633279018 -0.143989849940528
 20   8.18407216289273 -0.119694906357051
 21    8.1276857515525 -0.0944949798681855
 22   8.06558774616133 -0.065413036699428
 23   7.99295146212597 -0.0297077217640111
 24     7.907895838332 0.014327127490652
 25   7.81054382066469 0.067491529889471
 26   7.70201194471129 0.129956171034645
 27    7.5837610644111 0.201434681958803
 28   7.45726618144069 0.281287557125805
 29   7.32388059413929 0.368589530493405
 30   7.18477684825422 0.462205101721931
 31   7.04087816407206 0.560908441762199
 32   6.89278337368364 0.663526627835222
 33   6.74075620558648 0.769033141565313
 34   6.58479541117012 0.876562087645935
 35   6.42473183728934 0.985379277837151
 36   6.26031114065912  1.09484706004778
 37   6.09125721081531    1.204394282147
 38   5.91732328301488  1.31349190619493
 39   5.73833399323947  1.42163508654325
 40   5.55421679482597  1.52833362175097
 41    5.3650198260772  1.63311152057655
 42   5.17091493459911  1.73551405157975
 43   4.97218727667611  1.83511879236586
 44   4.76921510438557  1.93154677956559
 45   4.56244427404526  2.02447076285383
 46   4.35236171840592  2.11361908049016
 47   4.13947109539801  2.19877509574994
 48   3.92427256808251  2.27977307304422
 49   3.70724753304435   2.3564917692801
 50   3.48884824491444  2.42884700771115
 51   3.26949167279055  2.49678427995782
 52   3.04955647919773   2.5602721405372
 53   2.82938164804099  2.61929689459483
 54   2.60926501800631  2.67385883324567
 55   2.38946000089861  2.72396998784668
 56   2.17016945845665  2.76965300430894
 57   1.95153737557483  2.81094032936201
 58   1.73364127223453  2.84787267292324
 59   1.51648989907417  2.88049596899489
 60   1.30002998983221  2.90885687664877
 61   1.08416242291443  2.93299782961116
 62  0.868764041924445  2.95295309473994
 63  0.653709221951418  2.96874693012924
 64  0.438885985591173  2.98039405261978
 65  0.224203969452781   2.9879017968894
 66  0.00959415406509288  2.99127292455285
 67  -0.204997945108953  2.99050804144649
 68  -0.419623034205869  2.98560685496354
 69  -0.634339807562466  2.97656790413599
 70  -0.849224683961977   2.9633868405706
 71  -1.06437655942314  2.94605378435306
 72  -1.27991412686539  2.92455066287672
 73  -1.49596461080985  2.89884963617991
 74  -1.71264505544703  2.86891354623585
 75  -1.93004010883103  2.83469870021294
 76   -2.1481821720007  2.79615937547159
 77  -2.36703922384313  2.75325270796027
 78  -2.58651234355168  2.70594260941111
 79  -2.80644084112203  2.65420209554776
 80  -3.02661057634745  2.59801436996916
 81  -3.24676147321917  2.53737359138585
 82  -3.46659231492279  2.47228627088885
 83  -3.68576297166791  2.40277391873527
 84  -3.90389539939696  2.32887717483888
 85  -4.12057507941064  2.25066135431457
 86  -4.33535442933734  2.16822311313298
 87  -4.54775941458412  2.08169772833806
 88  -4.75730024112343  1.99126625168688
 89  -4.96348658388153   1.8971615511035
 90  -5.16584721109703  1.79967208505435
 91  -5.36395303527146  1.69914230389776
 92  -5.55744157450102  1.59596900099742
 93  -5.74603970513138  1.49059383917219
 94   -5.9295807500636  1.38349356207292
 95  -6.10801179654665  1.27517069464918
 96  -6.28138799983715  1.16614824521439
 97  -6.44985242711833  1.05697151517431
 98  -6.61360192766988 0.948218635201951
 99  -6.77283991557317 0.840519901523756
100  -6.92771398425099 0.734585998638478
101  -7.07823233285227 0.631245472593819
102   -7.2241628657126 0.531482063383965
103   -7.3649577085049 0.436434009268158
104  -7.49976572606583 0.347310442810436
105  -7.62751569004056 0.265251024831372
106  -7.74698190661881 0.191211155187368
107  -7.85682516253789 0.125894455336418
108  -7.95570521688538 0.069686313429094
109  -8.04258798346012 0.0225384664738739
110  -8.11737082018534 -0.0162354344904568
111  -8.18188698122893 -0.0482676818198087
112  -8.24088769185494 -0.0763647623971426
113  -8.30078592245263 -0.103681643004679
114  -8.36370089765527 -0.131023318529475
115  -8.47861202387964 -0.177301538745049
116  -8.98936674897472 -0.324524000871175
117  -9.81537813381747 -0.165812528403501
118  -10.0193540644899 0.231709445648541
119   -9.9643608190127 0.708011336898767
120  -9.66232376427943   1.1504325317041
121  -9.23842111631737  1.46722966131674
122  -8.36185650227317  1.79382364343779
123  -7.45793890181252  1.98554432157135
124  -6.54742001353148  2.11506400009053
125  -5.63994550704849  2.24678676111463
126  -4.74327069080896  2.42032598379373
127  -3.86326576546178   2.6446266801323
128  -2.98563884040408  2.89520339542903
129  -2.08770055105751  3.08999942299419
130  -1.06651119427055  3.19538656612084
131  -0.095544701077515  3.86218415789099
132  0.854624822344187  3.83543920743258
133   1.79769028281883  3.71241999766378
134   2.73408897887329  3.51663903286802
135   3.66092482973378  3.28032112294622
136   4.57781748694831  3.04939985972282
137   5.49227410370271  2.86166867996451
138   6.41025258908268  2.71885117831099
139   7.32874562477599  2.58627917999501
140   8.23566347908083  2.39305303280803
141   9.09268029226048   2.0338244225976
142   9.53123184409229  1.71501260711691
143   9.94981793163417  1.25165223108041
144   10.2773100082672 0.662698400077343
145   10.4944752693525 0.0292123697092512
146    10.659854827571 -0.613373419060443
147   10.6805779657478 -1.59726374497892
148   10.5088003849263 -2.00957258776037
149   10.2599863392177  -2.3431060452965
150   9.95934811027126 -2.60153363291335
151   9.62356623791502 -2.79090440492515
152   9.26940717925455 -2.91577897204269
153   8.91239836573677 -2.98312376235145
154   8.56369716442239  -3.0023759775275
155   8.22965236160238 -2.98344625147634
156   7.91298612577851  -2.9352468650995
157   7.61416022832706 -2.86515002666794
158   7.33237401632639 -2.77899205867021
159   7.06616920330204 -2.68127756169389
160   6.81379061520578 -2.57542674259944
161   6.57344879757315  -2.4640333263653
162   6.34352339383504 -2.34911631044755
163   6.12265891560105 -2.23231484686332
164   5.90975098637453 -2.11499772120252
165   5.70388848088083 -1.99831290592337
166   5.50429986498507 -1.88321204254388
167   5.31031183359486 -1.77046593264729
168   5.12131470286903 -1.66067577755113
169     4.936732012318 -1.55428334730365
170   4.75599609935422 -1.45158368865238
171   4.57853243182578 -1.35274293458148
172   4.40375396107453 -1.25782151393255
173   4.23106450671359 -1.16680090874101
174   4.05986856685467 -1.07961101393816
175   3.88958442829372 -0.99615524229215
176   3.71965780586873 -0.916331352166149
177   3.54957400966341 -0.840047022350105
178   3.37886744919581 -0.767230098580247
179   3.20712795081841 -0.697834054427278
180   3.03400386368501 -0.631839558399606
181   2.85920232441614 -0.56925319188707
182   2.68248742559612 -0.510104388051622
183   2.50367743356532 -0.45444159393529
184   2.32264256230395 -0.402328485998121
185   2.13930488860522 -0.353840751088294
186   1.95364138159693 -0.309063461479307
187    1.7656894085494 -0.268088524758587
188   1.57555180849088 -0.231011364645193
189     1.383397050789 -0.19792623893227
190   1.18945078886281 -0.168920475609553
191  0.993978537573891 -0.144068894111924
192  0.797263269959514 -0.123430024650225
193  0.599583839262823 -0.107045160912131
194  0.401199368925935 -0.0949402043853823
195  0.202342228313691 -0.0871293430073644
196  0.00321958654983035 -0.0836192121693974
197  -0.195978253290236 -0.084412277648906
198  -0.395065433054638 -0.089508550064646
199  -0.593847071685602 -0.0989052150401044
200  -0.792107893886249 -0.112594265217717
201  -0.989606010765479 -0.130558727382572
202  -1.18607440347919 -0.15276854496384
203  -1.38123136050984 -0.179177470422534
204  -1.57479882225276 -0.209722228552215
205   -1.7665247651723 -0.244324569650695
206  -1.95620379779477 -0.282895775022893
207  -2.14369064940127 -0.325342245349815
208  -2.32890447389236 -0.371570622189908
209  -2.51182597992592 -0.421491588216256
210  -2.69249173507602 -0.475022503876429
211  -2.87098958637207 -0.532089658467149
212  -3.04745708506263 -0.592630887449795
213  -3.22208276940991 -0.656598862714266
214  -3.39510902998394 -0.723964843351148
215  -3.56683503397847 -0.794722279413837
216  -3.73761842216516 -0.868889423447995
217    -3.907874873159 -0.946509985220308
218  -4.07807499707678 -1.02765082970569
219   -4.2487383600098 -1.11239576830524
220  -4.42042480793677 -1.20083466669902
221  -4.59372372388904 -1.29304745038549
222  -4.76924245380762 -1.38908318259301
223  -4.94759583069353  -1.4889352062687
224  -5.12939933901383 -1.59251423371993
225  -5.31526868445731 -1.69962190589814
226  -5.50582803943776 -1.80992728616755
227  -5.70172794488029  -1.9229476896803
228  -5.90367231041132 -2.03803336458667
229  -6.11245362473466 -2.15435373321149
230  -6.32899817855685 -2.27088215908118
231  -6.55442642080692 -2.38637454705173
232  -6.79012202280043 -2.49932615259949
233  -7.03776012747568 -2.60786876769351
234  -7.29921966287365 -2.70957478328878
235  -7.57638129809162 -2.80119641320668
236  -7.87087782218126 -2.87839963102747
237  -8.18376444117171 -2.93550663925606
238  -8.51495288336866  -2.9652643883483
239  -8.86224647150205 -2.95877945067253
240  -9.21997091903576 -2.90595564760022
241   -9.5776959079793 -2.79685001348971
242  -9.92045187228836 -2.62368124558582
243  -10.2317774277056 -2.38103117343463
244  -10.4955135292908 -2.06194267958014
245  -10.6862075355602 -1.66343497903399
246  -10.7166575194029 -0.685439857624777
247  -10.5842491368384 -0.0357058423210696
248   -10.399451608173 0.607069410694118
249  -10.1001360689935  1.21026833791039
250  -9.70118597265438  1.68953358212913
251  -9.27232733327015  2.02332134834991
252  -8.42329806560104  2.40132380517703
253  -7.51798289236145  2.60218011171485
254  -6.59911299869754  2.73179657638839
255  -5.68004218770431  2.86447498060315
256  -4.76400626651023  3.03901966451948
257  -3.84520910524525  3.25771822391254
258  -2.91507970354191  3.48418328714164
259  -1.97622739605563  3.67374475268211
260  -1.03821901177012  3.80284948641307
