// Id               X                Y
  1  -0.102535604724319  3.75548612489546
  2  0.822292592342912  3.71811532637904
  3   1.75240752537598  3.59783735161115
  4   2.69181602952054  3.39235989461303
  5   3.61792986704874  3.11110174769089
  6    4.4817085047395  2.80191586002075
  7   5.35843543776232  2.53359157041296
  8    6.2465217403447  2.30988741414836
  9   7.13678664316239  2.11087943862071
 10   8.01872378648462  1.89917825237916
 11   8.88068251793552  1.61373779228948
 12    9.3263027514797  1.36332518726581
 13   9.71740495280797  1.00462128061304
 14   9.97128360484298 0.428491149756796
 15   9.82973365509361 -0.10904103924281
 16   9.11215094968231 -0.346196454943977
 17    8.6024934198134 -0.236048649467297
 18   8.50178593145879 -0.200162783682831
 19   8.44225553233472 -0.176739668283088
 20   8.38456615667538 -0.152471371379245
 21   8.32667539557884 -0.12661543687138
 22   8.26204976227288 -0.0959702357523766
 23   8.18584947807231 -0.0574935625476217
 24   8.09636996387049 -0.0091589095210903
 25   7.99403033370732 0.0501146028684816
 26   7.88028861182668 0.120687779628228
 27   7.75693021820324 0.202349181806721
 28    7.6257156169876 0.294400054628945
 29    7.4882765177688 0.395687927623979
 30   7.34608737228927 0.504667659524063
 31   7.20030886430666 0.619629669487186
 32   7.05156481896067 0.739034304892075
 33   6.89996716633622 0.861643898067251
 34   6.74531862626126 0.986457633363322
 35   6.58726702748052   1.1126382525358
 36   6.42538811404962  1.23947109370881
 37   6.25923753607241  1.36633489255929
 38   6.08839211129093  1.49267514357927
 39    5.9124865865462  1.61797983527569
 40   5.73124635399937  1.74176011144327
 41   5.54451350461733  1.86353864649459
 42   5.35226268537728  1.98284707139634
 43   5.15460442101708  2.09923143556635
 44   4.95177599058994  2.21226266224632
 45   4.74412233239153  2.32154816874463
 46    4.5320708690293  2.42674138173631
 47   4.31610436563109  2.52754723493254
 48    4.0967352485361  2.62372319307114
 49   3.87448369504435  2.71507642790314
 50   3.64986065898124  2.80145832923665
 51   3.42335603997065  2.88275765248328
 52   3.19543147619407  2.95889346111251
 53   2.96651666813134  3.02980877878249
 54   2.73700762864403  3.09546561085894
 55   2.50726479283416  3.15584173244037
 56   2.27760870718638  3.21092930517214
 57   2.04831152689179  3.26073490140749
 58   1.81958436171365  3.30527990782399
 59   1.59156365217902  3.34459981794956
 60   1.36430279041545  3.37874109421843
 61   1.13777534748259  3.40775539401391
 62  0.911891889785266  3.43169254395343
 63  0.686525745317761  3.45059455475775
 64   0.46153903409572   3.4644924444516
 65  0.236801280195404   3.4734061506302
 66  0.0121971780563011  3.47734646781573
 67  -0.212375621121242  3.47631741103604
 68  -0.437015165362932  3.47031764257418
 69  -0.661825608020682  3.45934026863675
 70  -0.886924411908625  3.44337113910524
 71  -1.11244185074198  3.42238658836078
 72  -1.33850992842861  3.39635212482587
 73  -1.56524120039531  3.36522357683657
 74  -1.79270259152836  3.32895134745599
 75  -2.02089270833555  3.28748692773922
 76  -2.24973025344104  3.24078958668454
 77  -2.47905571249958    3.188831180153
 78  -2.70864233064393   3.1315982911727
 79  -2.93820976237146   3.0690923954062
 80  -3.16743528355451  3.00132948421484
 81  -3.39596068865685  2.92834045433191
 82  -3.62339561008573  2.85017302550786
 83  -3.84931921059062  2.76689539386706
 84  -4.07328234512568   2.6786014317809
 85    -4.294811936344  2.58541698029879
 86  -4.51341882643299  2.48750656994108
 87  -4.72860987345843  2.38507970477692
 88  -4.93990451593725  2.27839567339661
 89    -5.146855355372  2.16776579576702
 90   -5.3490714655953  2.05355220860875
 91  -5.54624219633566  1.93616285630673
 92  -5.73815839926914  1.81604331462985
 93  -5.92472758564871  1.69366726156799
 94  -6.10597985034015  1.56952842271378
 95  -6.28206260342778  1.44413713718059
 96  -6.45322397068478  1.31802396276362
 97  -6.61978642287474  1.19175111575336
 98  -6.78211280567914    1.065930758489
 99  -6.94056567894388 0.941248231617627
100   -7.0954567749527  0.81848954744037
101   -7.2469713850815  0.69857988853355
102  -7.39502768033694 0.582655689338859
103  -7.53907725418938 0.472147705644876
104  -7.67806229148273 0.368692126747034
105  -7.81062356101973 0.273828571813338
106  -7.93525841980912 0.188773051639692
107  -8.05035610097529  0.11434244715367
108  -8.15428954932501 0.0509091412002868
109  -8.24573201184348 -0.00169825736528285
110  -8.32432939495003 -0.0443858299058286
111  -8.39178767114782 -0.0790868618766192
112  -8.45299626364223 -0.108984407646914
113  -8.51495893578706 -0.137680496613955
114  -8.58030975610407 -0.166202213429751
115  -8.69702910878144 -0.212637611349572
116  -9.20674902362124 -0.347820826800628
117  -9.94174175393113 -0.15858335554694
118  -10.1226435983143 0.352586168971031
119  -9.92671833122052 0.933101883879052
120  -9.57105181305209  1.31612973049614
121  -9.14888135843672  1.59045687247075
122  -8.30464622243625  1.90501984156239
123  -7.43294569308396  2.12382668031831
124  -6.55040333935996  2.31324019803193
125  -5.66847572269432  2.51734120555474
126  -4.79655132410348  2.76260077456056
127   -3.9389026116395  3.05320783553965
128  -3.07617738515093  3.33548484099087
129  -2.17644429568812  3.54400925361379
130  -1.13997511810372  3.66564580016941
131  -0.115044314337185   4.3358686316657
132  0.870886844795851  4.30430985445006
133   1.83725613753058  4.17759355831481
134   2.78288517967613  3.96825933540927
135   3.71107233027745  3.69883521433288
136   4.62758488635584  3.40690964652341
137   5.53895548136382  3.13497690261351
138   6.46115621690717  2.90033714146628
139   7.40489817586808  2.67792618679985
140   8.40963546108253  2.38101593600705
141   9.35480275549075  1.89369242730518
142   9.85224059116219  1.44476422085407
143   10.2330974062701 0.902344676786761
144   10.4620355012936  0.39184990012634
145   10.6090650791774 -0.0973293599565697
146   10.7562835559615 -0.745461659706491
147   10.7458621541364  -1.8185189171636
148   10.5458533809025 -2.22146347467086
149   10.2720590248044 -2.53833506903182
150   9.95149859961759  -2.7741995852688
151   9.60108040045164 -2.93714097228493
152   9.23807629080523 -3.03345916568569
153   8.87785362008196 -3.07194696194965
154   8.53060020505618 -3.06341295738436
155   8.20136790075316 -3.01844624780151
156   7.89167976880841 -2.94608961349667
157   7.60107783320392 -2.85354532383081
158   7.32811084036712  -2.7463603979215
159   7.07082377517688 -2.62870102987436
160   6.82701132100261 -2.50360535843373
161   6.59452181682974 -2.37329809119503
162   6.37158980196951 -2.23956643619101
163   6.15688647930368  -2.1039768339795
164   5.94936855365751 -1.96790840422352
165   5.74816510690933 -1.83254988993095
166   5.55252872257385 -1.69890864804857
167   5.36180998022571 -1.56782317931883
168   5.17543591315479 -1.43997316627672
169   4.99288724406386 -1.31588675922556
170   4.81367472427735 -1.19594736475076
171   4.63731751437393 -1.08040309392765
172   4.46332714216019 -0.969381376994355
173    4.2911994262816 -0.862909396349059
174   4.12041473330121 -0.760938924491916
175   3.95044510204521 -0.663372832490052
176    3.7807657525132 -0.570090304223326
177   3.61086834716499 -0.480968407609903
178    3.4402737947762 -0.395898660010023
179   3.26854303637166 -0.314798185635145
180   3.09528489987342 -0.237615798268292
181   2.92016067233498 -0.164333817050206
182   2.74288553944655 -0.0949666837080387
183   2.56322755152905 -0.02955755693693
184   2.38100534534408 0.0318259552160436
185   2.19608643199471 0.0890959191628437
186    2.0083881975015 0.142147406252857
187    1.8178833365834 0.190860989296448
188   1.62460965985506 0.235105146216639
189   1.42868107861812 0.274739912108134
190   1.23029356977719 0.309622956678263
191   1.02971985540412 0.339618014433071
192   0.82729098976184 0.364603867444076
193  0.623369667946571  0.38448123482164
194  0.418324022861673 0.399175750434509
195  0.212509551693443 0.408637053995171
196  0.00626247080452992 0.412835561332546
197  -0.200096534035271 0.411758996686244
198  -0.406251876911193 0.405410385857664
199  -0.611880830593138 0.393808355644231
200  -0.816644604443762  0.37698957788783
201  -1.02018741975806 0.355012210504273
202  -1.22214663648974 0.327958443267317
203  -1.42217360317815 0.295934147095351
204  -1.61996023717645 0.259064537074015
205  -1.81526283860485 0.217486526424612
206  -2.00791541574989 0.171340030227475
207  -2.19783017810134 0.120760665386019
208  -2.38498904051345 0.0658749900806184
209  -2.56943269813943 0.00679778674371436
210  -2.75125238391579 -0.0563699361503843
211  -2.93058619667054 -0.123543369332528
212    -3.107619277025 -0.194657203715741
213   -3.2825859328687 -0.269669549904672
214  -3.45577175633304 -0.34856573569296
215    -3.627514237156 -0.431360991365377
216  -3.79820095227088 -0.518100951435791
217  -3.96826493200158 -0.608858937642533
218  -4.13817725954288 -0.703729133278253
219  -4.30843740430374 -0.802815041796852
220  -4.47956226933016 -0.906213085413309
221  -4.65207544731675 -1.01399186014373
222   -4.8264986429266  -1.1261683635064
223  -5.00334744809445 -1.24268326410421
224   -5.1831334148647 -1.36337767470028
225  -5.36637349858279 -1.48797358803293
226   -5.5536065582213 -1.61605901062628
227  -5.74541521924828 -1.74707718854489
228  -5.94245083768177 -1.88031787303583
229  -6.14546035145615 -2.01490808210448
230  -6.35531762715863 -2.14980093221083
231  -6.57307400363054 -2.28376609920019
232  -6.80006839847111 -2.41539275632622
233  -7.03808877009859 -2.54306900952108
234  -7.28935561213073 -2.66478608178498
235  -7.55621804571297 -2.77776112856484
236   -7.8408572167645 -2.87809872065755
237  -8.14503466017733 -2.96051067488294
238  -8.46962857786407 -3.01801530032698
239  -8.81369989356523  -3.0417023963699
240  -9.17297815982607 -3.02092056078409
241  -9.53817250060672 -2.94446172006493
242  -9.89465763314435 -2.80280534783659
243  -10.2256416206165 -2.58900732856114
244  -10.5153742394231 -2.29446344466856
245  -10.7367314230235 -1.91695515742778
246  -10.8227454857033 -0.850252491694651
247  -10.7235910004874 -0.19427337093081
248  -10.6146633947241 0.304891144994422
249  -10.4306123824112 0.817626835651193
250  -10.0914555454572  1.38255760520292
251  -9.62116823017978   1.8597177164564
252  -8.69683131207876  2.38301090822381
253  -7.69514065387437  2.69322174673449
254  -6.74800869599333  2.90943497624888
255  -5.82096461473877   3.1266763605499
256  -4.90280256808845  3.37838424615722
257  -3.97534414262332  3.65614890027812
258  -3.01627328653602  3.92162131494488
259  -2.03221865287656  4.13534173470263
260  -1.07677493777489  4.27347487757312
