// Id               X                Y
  1  -0.10266370284167  3.77627441655736
  2  0.823844140650379  3.73866223207203
  3   1.75588922581549  3.61743347242604
  4     2.697329600172   3.4102720933343
  5    3.6179221920648  3.13269620860609
  6   4.48109616141354  2.82236598054238
  7   5.35685754118156  2.54984082682349
  8   6.24415025168405  2.32053542469623
  9   7.13389981972947  2.11605202466782
 10    8.0149665250465  1.89895607085024
 11    8.8753841821975  1.60952967004665
 12   9.32032612994755  1.35852563895399
 13    9.7115716912429  1.00019716729592
 14   9.96695485886617  0.42466641934592
 15   9.82692791816186 -0.113390251724038
 16   9.10990949474253 -0.351713678344919
 17   8.60058396042338 -0.241430710587303
 18   8.50094752556642 -0.205772899158081
 19     8.441863688627 -0.182415627882039
 20   8.38451252629901 -0.158198230844206
 21   8.32687802328133 -0.132322463973489
 22   8.26242868975744 -0.101616089015774
 23   8.18635767104243 -0.0629906696332748
 24    8.0969738852501 -0.0144156429544626
 25   7.99471948119643 0.0452067205977355
 26   7.88107327798561 0.116243085965507
 27   7.75783996559782 0.198481876022977
 28   7.62679546894107  0.29121655935859
 29    7.4895853090801 0.393277182789313
 30   7.34769584657011 0.503091958857819
 31   7.20228846549507 0.618926589120962
 32   7.05397524322533 0.739226208900656
 33   6.90285356802761 0.862743288570833
 34   6.74871307134588 0.988469168461576
 35   6.59118927005817  1.11556080832961
 36   6.42984559960157  1.24330003554772
 37   6.26422506579549  1.37106411330549
 38   6.09389139080046  1.49829858853335
 39    5.9184659361397   1.6244923081034
 40   5.73766093203335  1.74915725301495
 41   5.55130634199895  1.87181615170795
 42   5.35936663251564  1.99199940314214
 43   5.16194485478194   2.1092504125075
 44   4.95927393472018  2.22313627999305
 45   4.75169757944204  2.33325988401483
 46   4.53964475063372  2.43926991952648
 47   4.32360194844794   2.5408668401018
 48   4.10408687657447  2.63780417441548
 49   3.88162591500131  2.72988583220814
 50   3.65673663900875  2.81696061243253
 51   3.42991562813186  2.89891526002788
 52   3.20163105564099  2.97566727282922
 53   2.97231896403356  3.04715840723413
 54   2.74238161163252  3.11334956759624
 55   2.51218579616473  3.17421749829808
 56   2.28205880548071  3.22975336437076
 57   2.05228008453781  3.27996282326655
 58   1.82306845464212  3.32486656938591
 59   1.59456789600601   3.3644998278698
 60   1.36683816064177  3.39890938640242
 61   1.13985696706022  3.42814784463759
 62  0.913536292139438  3.45226641527937
 63  0.687748380292403  3.47130863846876
 64  0.462352570741623  3.48530691438743
 65  0.237214798839572  3.49428223460805
 66  0.0122159865710002  3.49824605971367
 67  -0.212749913641953  3.49720269424993
 68  -0.437784583659536  3.49115073665931
 69  -0.662995825223197  3.48008287825668
 70  -0.888504702987375  3.46398419154243
 71  -1.11444467986516  3.44282988936229
 72  -1.34094983365365  3.41658412114018
 73  -1.56813283306721  3.38520134453464
 74  -1.79605817281117  3.34863088156472
 75  -2.02471954718427  3.30682369095751
 76   -2.2540290021735   3.2597391593757
 77  -2.48381965407532  3.20734983184678
 78  -2.71385750776885  3.14964337366654
 79  -2.94385551465082  3.08662256434505
 80   -3.1734848096472  3.01830482107887
 81  -3.40238143606939  2.94472257242868
 82  -3.63014946430432  2.86592522523652
 83  -3.85636255403325   2.7819829070796
 84  -4.08056609674843    2.692991771961
 85   -4.3022816919025  2.59908039405518
 86  -4.52101521554741  2.50041656230425
 87  -4.73626923806282  2.39721358376641
 88  -4.94755999189174  2.28973503014454
 89  -5.15443839810342   2.1782968124753
 90  -5.35651379680168  2.06326568040418
 91  -5.55347806488335  1.94505383928678
 92  -5.74512696047957  1.82411038033215
 93  -5.93137513714221   1.7009114415138
 94  -6.11226165307366  1.57595203694679
 95  -6.28794408653669  1.44974277199044
 96  -6.45868126079328  1.32281385409893
 97  -6.62480630626879  1.19572709970149
 98  -6.78669235876253  1.06909480825694
 99  -6.94471184883811 0.943603470290607
100  -7.09918621233832 0.820041519005681
101  -7.25031109194809 0.699337664341868
102  -7.39801720050471 0.582632475409825
103  -7.54176975119041  0.47136313161232
104   -7.6805187642459 0.367178717901855
105   -7.8129035800541  0.27163686031006
106  -7.93741414762348 0.185970634066506
107  -8.05242768156316 0.111010403138588
108  -8.15630050151502 0.0471377295310056
109  -8.24768746249782 -0.00581594214747794
110  -8.32621776022338 -0.0487619357515343
111  -8.39358492794933 -0.0836479109600732
112  -8.45467248631154 -0.113680991410411
113  -8.51648613267209 -0.142491323849185
114  -8.58165516200658 -0.171113264823464
115  -8.69777322056316 -0.217604410849062
116  -9.20715889365567 -0.353537697590332
117   -9.9421411645213 -0.164565521992706
118  -10.1228351791603 0.346626260641695
119  -9.92658557192153 0.927394111943921
120   -9.5710138093638  1.31081974786308
121  -9.14927871008256  1.58621773487869
122  -8.30615945114632  1.90484219956905
123  -7.43461678043028  2.12852979094553
124  -6.55129017952967  2.32218831527863
125  -5.66823826165806  2.53050699834658
126  -4.79485290062546  2.77924971528509
127  -3.93533153323755  3.07140284475396
128  -3.07242055253278  3.35767796649452
129  -2.17140300243025  3.56851810044518
130  -1.13714751652338  3.69035119018604
131  -0.124624565726109  4.36161246398468
132  0.861064393850152  4.33000638489166
133   1.82668622088805  4.20338779636281
134   2.77168878839629  3.99350147320713
135    3.7021821767074  3.72024409471257
136   4.62076562104969  3.42175601372946
137   5.53198071524869  3.14351827250054
138      6.45349441637  2.90319496356864
139    7.3963548313237  2.67623785701137
140   8.40074085221195  2.37697381102684
141   9.34687953502386  1.88980513200701
142   9.84541918403785  1.44138793968107
143    10.227536209382 0.899646853582197
144    10.457847856887 0.389325894847441
145   10.6060967419921 -0.0996387321354294
146   10.7548050739736 -0.747438544131967
147   10.7467592128378 -1.82080867426714
148   10.5471521324874 -2.22496493899185
149   10.2734955011991 -2.54264311186618
150   9.95283724161166  -2.7791068323454
151   9.60219316618325 -2.94241448947893
152   9.23890046443215 -3.03886883136675
153   8.87837408544635 -3.07727689023173
154   8.53083336459563 -3.06847062845194
155    8.2013464099765 -3.02306522244414
156   7.89144262704755 -2.95012778922097
157   7.60066594953467 -2.85688248792638
158   7.32756507150122 -2.74889632707399
159   7.07018033366952 -2.63035197447933
160   6.82629696111048 -2.50429899641444
161   6.59375903135891 -2.37297399396748
162   6.37080449742176 -2.23818093704895
163   6.15610707676319  -2.1015041474481
164   5.94862197810546 -1.96433852154091
165   5.74747458700645 -1.82788625904961
166   5.55191329044083 -1.69316626219581
167   5.36128500212402 -1.56102701542738
168   5.17501423961911 -1.43215685412781
169   4.99258057702376 -1.30709127457598
170   4.81349478118846 -1.18621951902478
171   4.63727665174774 -1.06979369475007
172   4.46343828806492 -0.957943114354073
173   4.29147538836926 -0.850694670527584
174   4.12086710584022 -0.747997895873005
175   3.95108304904835 -0.649751929043859
176   3.78159490857315 -0.55583131358327
177   3.61188999599684 -0.466108163152397
178   3.44148439774341 -0.380469241268524
179   3.26993411186498 -0.29882750437441
180   3.09684320479005 -0.22112842721135
181   2.92186860477399 -0.147351927109654
182   2.74472166013785 -0.0775109772816738
183   2.56516710600231 -0.0116481130950978
184   2.38302066178205 0.0501689750168006
185   2.19814708462695 0.107851717968115
186    2.0104608884745 0.161294120151428
187   1.81993158791358 0.210375303282912
188   1.62659361163139 0.254961861414116
189   1.43055785727872 0.294911401647935
190   1.23201863032152 0.330078551271565
191   1.03124930619286 0.360323484684561
192  0.828584379837485 0.385521213671575
193  0.624392471207483 0.405568899024264
194  0.419049281299709 0.420389199675308
195  0.212918607991788  0.42992957597704
196  0.00634507643078277  0.43415911488144
197  -0.200342353364188 0.433065032857818
198  -0.40681992406408 0.426650633965379
199  -0.612756735807675 0.414935610344393
200  -0.817805865432327 0.397958513844679
201  -1.02160379931576 0.375780194162003
202  -1.22378127156738 0.348486231550286
203  -1.42398498956839 0.316186312305556
204  -1.62190484734384 0.279009495795146
205  -1.81729773846032 0.237096185270831
206  -2.01000019963853  0.19058920621492
207    -2.199927913002 0.139626480488104
208  -2.38706639437407 0.0843363592480312
209  -2.57145967773786 0.0248350005281139
210  -2.75320206251789 -0.0387756053116831
211   -2.9324346275709 -0.106410115812472
212  -3.10934561971656 -0.178003240184594
213  -3.28417272162397 -0.253513768583029
214  -3.45720520684375 -0.332928449994718
215  -3.62878448819938 -0.416264700001364
216   -3.7993021557046 -0.50357104545695
217  -3.96919512648183 -0.59492425582107
218  -4.13893798981768 -0.690422264427394
219   -4.3090330810836 -0.790172278359994
220   -4.4799993072498 -0.894273956745625
221  -4.65236126999205 -1.00279822120239
222  -4.82664069755029 -1.11576308432556
223  -5.00335241121162 -1.23310864524667
224  -5.18300677271413 -1.35467377774769
225  -5.36611962930489 -1.48017668484571
226  -5.55322932807595 -1.60920029908156
227  -5.74491896031817 -1.74118180804009
228  -5.94184145103878  -1.8754041300088
229  -6.14474621206223 -2.01098672182346
230  -6.35450990721674 -2.14687427690109
231  -6.57218572320659 -2.28182681743805
232  -6.79911132267084   -2.414422278527
233  -7.03707076723763 -2.54303767240346
234  -7.28828425943728 -2.66565689659583
235  -7.55510695410373 -2.77949284777324
236  -7.83972847919609 -2.88064525480237
237  -8.14392006530615 -2.96381940669569
238  -8.46857137398961  -3.0220247315589
239  -8.81275355880723 -3.04633776834015
240   -9.1722000381692 -3.02608864979526
241   -9.5376124537958  -2.9500484526431
242  -9.89434598265869 -2.80868024341964
243  -10.2255851772297 -2.59503244816145
244  -10.5155599931416 -2.30049340638212
245  -10.7371950666349 -1.92263474502397
246   -10.823208440566 -0.856070413604352
247  -10.7239581877071 -0.200095220104521
248  -10.6148930054633 0.299082684199675
249  -10.4306693769049 0.811847321116096
250  -10.0914266079906   1.3766762332329
251  -9.62097929424203  1.85392872013156
252  -8.69620431991336  2.37766159819557
253  -7.69468575769639  2.68961699485138
254  -6.74856009756206  2.90893109220358
255  -5.82236764802888  3.13008575315012
256  -4.90536801453089   3.3866326527592
257  -3.97828299802517  3.67124450519166
258  -3.01284151565852  3.94473889474065
259  -2.04086429974563  4.15862153660264
260  -1.08703451378898  4.29779971973884
