// Id               X                Y
  1  -0.0995394704540778  3.38348102958064
  2  0.853014472753309  3.36273133118027
  3   1.88995802192055  3.21970380342686
  4   2.81501383019864  3.01189035905875
  5   3.69722288149909  2.75886239422781
  6   4.57026443165466  2.51010200953799
  7   5.46002871942794  2.30827981997548
  8   6.36232414032751  2.15080906471862
  9   7.26861718896561  2.00344014726671
 10   8.16899604208629  1.80879115874061
 11   9.04909207014892  1.50584358756651
 12   9.49843684559457  1.20062259464762
 13   9.82791306061591 0.767268988570438
 14   9.90698999103801 0.259710718594692
 15   9.67346966049937 -0.178759816601566
 16    8.9350059484591 -0.347720692664662
 17   8.42322729011607 -0.219780945178607
 18   8.31768273943752 -0.18006028924594
 19   8.25820721166507 -0.155680491811457
 20   8.20130242579336 -0.131013806375361
 21   8.14494205015987 -0.105345262815188
 22    8.0827431770498 -0.0755917121922541
 23   8.00988703970339 -0.0389167409710389
 24   7.92454955504267 0.00645412952146816
 25   7.82693207607847 0.0613619991209654
 26   7.71823249121818 0.125991401698005
 27   7.59998231327246 0.200044826130408
 28   7.47370905994039 0.282849847926264
 29   7.34080133258433 0.373428137771179
 30   7.20245475274098 0.470573053529636
 31   7.05960064216231 0.572981176342402
 32     6.912821859276 0.679414790733861
 33   6.76234423298252 0.788803890594979
 34    6.6081183033697 0.900255668664322
 35    6.4499231548641  1.01302001694492
 36   6.28744923721959   1.1264520272069
 37   6.12036017365936   1.2399803668569
 38   5.94834363983561  1.35308024951076
 39   5.77115559093884    1.465251718952
 40   5.58865606799466  1.57600602699584
 41   5.40083251871912   1.6848620766354
 42   5.20780777295964  1.79135221418688
 43   5.00983286178615  1.89503403029677
 44   4.80726781220652  1.99550370334205
 45   4.60055516980564  2.09240701284777
 46   4.39019111234193  2.18544576346935
 47   4.17669807907217  2.27437909431729
 48   3.96060146979964  2.35902041415492
 49   3.74241163750946  2.43923132758092
 50   3.52261134574568  2.51491401529932
 51   3.30164811961279  2.58600332402845
 52   3.07993039983847  2.65245950664235
 53   2.85782599888517  2.71426224687353
 54   2.63566101752537  2.77140632926429
 55   2.41371725100583  2.82389902477512
 56   2.19222656946566  2.87175888389368
 57   1.97136223809121  2.91501516430739
 58   1.75122961723814  2.95370675507054
 59   1.53186100276858  2.98787954812409
 60   1.31321951059381  3.01758197870933
 61   1.09521378232123  3.04285960694975
 62  0.877720454976487  3.06375037118049
 63  0.660608014653463  3.08028195218775
 64  0.443755701166624  3.09247173907157
 65  0.227063734168204  3.10032885308215
 66  0.0104542701299726  3.10385708256835
 67  -0.206135197002907  3.10305750866713
 68  -0.422763056444501  3.09792989707686
 69  -0.639495991006529  3.08847240853489
 70  -0.85641901332502   3.0746797227925
 71  -1.07363972389999  3.05654020921205
 72  -1.29128410246211  3.03403322139174
 73   -1.5094828435662  3.00712777910555
 74  -1.72835007797448  2.97578362057031
 75  -1.94795952193149  2.93995478171945
 76  -2.16832483446152  2.89959477212003
 77  -2.38938949932188  2.85466171911644
 78  -2.61102722201931  2.80512207819525
 79  -2.83304941742029  2.75095251151389
 80  -3.05521463545624  2.69214058232281
 81   -3.2772360503749  2.62868538766321
 82    -3.498785676493  2.56059911417066
 83  -3.71949602984747  2.48791007914815
 84  -3.93896092688088  2.41066740645556
 85  -4.15673725222468  2.32894718250644
 86   -4.3723492858083   2.2428597012829
 87  -4.58529683298643   2.1525571678594
 88  -4.79506801216118  2.05824095658784
 89  -5.00115705282615  1.96016725268823
 90  -5.20308673858456  1.85864976244388
 91  -5.40043413731849   1.7540583363557
 92  -5.59285705797554  1.64681299080535
 93  -5.78011750213161   1.5373740001333
 94  -5.96209766064543  1.42623026418619
 95   -6.1388042315179   1.3138894989624
 96  -6.31035829266384  1.20087421128573
 97  -6.47697035816726  1.08772640238366
 98  -6.63890243428168 0.975021816881195
 99  -6.79641899120776 0.863392730883395
100   -6.9497248788681 0.753558713586123
101  -7.09888206768419 0.646366698639246
102  -7.24370407631567 0.542833616728465
103  -7.38367017084716 0.444151543875491
104   -7.5179333483841 0.351599494164344
105  -7.64540767427078 0.266388297174222
106  -7.76483448269333 0.189535269768959
107  -7.87482162755444  0.12179128762721
108  -7.97395892879084 0.0635686683581384
109  -8.06113292804788 0.0148200704804263
110  -8.13616332848522 -0.025170022840892
111  -8.20082325974279 -0.0580969118840888
112  -8.25984908882912 -0.0868669716749291
113  -8.31972538849818 -0.114758606537425
114  -8.38264406902533 -0.142624784610811
115  -8.49682258547866 -0.189337944572295
116  -9.00676278268447 -0.336469685197467
117  -9.75449233527554 -0.20490271175782
118  -10.0126191102266 0.218470232552346
119  -9.96315664560372 0.727975772177611
120  -9.65867090262797  1.17424810372721
121  -9.22566475940507  1.49505376388744
122  -8.35617795757428  1.81845554225234
123  -7.46000620588532  2.01943695131868
124  -6.55584949294773  2.16294453253523
125   -5.6543542083808  2.30964503375166
126  -4.76399561116921  2.49763791337176
127   -3.8903243206045  2.73452251816336
128  -3.01522260281048  2.98946302904499
129  -2.10853632727173  3.19357663279857
130  -1.07910178362078   3.3038034437861
131  -0.0978569813622841  3.97310252127451
132  0.857905449586185  3.94548459126716
133   1.80619559566617  3.81782591079013
134    2.7493977863578  3.61522258449218
135   3.68102841062361  3.37064985900199
136   4.60045576056702   3.1276427112485
137   5.51510220687066  2.92482242758407
138   6.43319674414879  2.76581758228901
139   7.35241511739777  2.61763787166133
140   8.26045198136791  2.40964987047159
141   9.11711226899141  2.03418979746463
142   9.55790228633596  1.70319432971786
143   9.98105316267784  1.21893101534226
144   10.3017232648543  0.62426088792194
145   10.5150782394133 -0.0025678453597696
146   10.6773775504893 -0.645706493432981
147   10.6913269860823 -1.62000268050873
148   10.5175621303382 -2.03227072373286
149   10.2667776770372 -2.36516167020722
150    9.9642018933722 -2.62241976530432
151   9.62657770187101 -2.81006706477685
152   9.27080571538716 -2.93266880768118
153   8.91250160877098 -2.99727206912418
154   8.56282782367266  -3.0134131375916
155   8.22808528540734 -2.99107782755356
156   7.91093447894936 -2.93922397878385
157   7.61178491838247 -2.86525147626146
158   7.32979903514156 -2.77501851130496
159   7.06349027869884 -2.67305030744936
160   6.81107415804533 -2.56278469121975
161   6.57073248206518 -2.44683152717722
162   6.34082792948357 -2.32723302727844
163   6.12000064104682 -2.20566269154246
164   5.90714548835396 -2.08353022444476
165   5.70134986371954 -1.96202615222721
166   5.50184206706251  -1.8421446297276
167   5.30795332144562 -1.72469857183955
168   5.11908485069262 -1.61032991172791
169   4.93467665423141  -1.4995175712745
170   4.75418007694358 -1.39258717700055
171   4.57703808647571 -1.28972610374784
172   4.40267588852813 -1.19100514357297
173   4.23050186724182 -1.09640540577474
174   4.05991655956546  -1.0058473244328
175   3.89032632173939 -0.919218350003666
176    3.7211584532698 -0.836396666018939
177   3.55187529982812 -0.757269454272701
178   3.38198577019148 -0.68174533322737
179   3.21105349333362 -0.609761388846574
180   3.03870143618741 -0.54128568658707
181   2.86461325284888 -0.476316375183149
182   2.68853203905151 -0.414878554833416
183   2.51025759590555 -0.357020037772705
184   2.32964374493578 -0.302806980494003
185   2.14659748529714 -0.252320071934208
186   1.96108142989017 -0.20565147729143
187   1.77311954230924 -0.162902115930741
188   1.58280376034276 -0.124178353950935
189   1.39029680373688 -0.0895872420459172
190   1.19582635362369 -0.0592302597698829
191  0.999668933569508 -0.0331967384327487
192  0.802126630457798 -0.0115588255008902
193  0.603503056572982 0.00563055494312784
194  0.404084844176807 0.0183364879921406
195  0.204132317843993 0.0265385198324051
196  0.00387982979450543 0.0302262964955149
197  -0.19645606854196 0.0293958882341742
198  -0.396663671189727 0.0240478868994961
199  -0.596521928876626 0.0141877902237183
200  -0.795788710034049 -0.000171433129212846
201  -0.994195033899637 -0.0190053247230845
202  -1.19144808064966 -0.0422737395513003
203  -1.38724407974854 -0.069918045935703
204  -1.58128933575659 -0.101861082354343
205  -1.77332442327966 -0.138010352836577
206  -1.96314479508155 -0.178263665936941
207  -2.15061244777349 -0.222515482954777
208  -2.33565756782582 -0.270662315980766
209  -2.51827348645934 -0.322606521767553
210  -2.69851002218406 -0.378258960264759
211  -2.87646903982357 -0.437541487824256
212  -3.05230354278779 -0.500390039407881
213  -3.22621959765733 -0.566758485313157
214  -3.39847948873838 -0.636622892369818
215  -3.56940446171379 -0.709985435142178
216  -3.73937576969432 -0.786876986125115
217  -3.90883316327992 -0.867357313655758
218  -4.07827035492108 -0.951511802789149
219  -4.24822735554165 -1.03944370200807
220  -4.41928000244128 -1.13126114129715
221  -4.59202754678111 -1.22705863840452
222  -4.76707986976926 -1.32689356030857
223  -4.94504665914042 -1.43075898935412
224    -5.126531448282 -1.53855542918611
225  -5.31213340698114 -1.65006433413814
226  -5.50245882749397 -1.76492604168769
227  -5.69814243329922 -1.88262309843772
228  -5.89987679133659 -2.00246765953152
229  -6.10844793251073 -2.12358983184437
230  -6.32477875925258 -2.24492372567694
231  -6.54998735155979 -2.36518780547965
232  -6.78545881149989 -2.48284619565431
233  -7.03288182376123  -2.5960110075005
234  -7.29416322122123 -2.70224430904523
235  -7.57122014109838 -2.79829000032955
236  -7.86573093628723 -2.87980456601314
237  -8.17881141380832 -2.94109751043267
238  -8.51045128321792 -2.97489248814285
239  -8.85854322017446 -2.97224861653753
240  -9.21749293926863 -2.92298342216497
241  -9.57690111115461  -2.8170287801201
242  -9.92174106892341 -2.64647868478129
243  -10.2354333412923 -2.40586039607679
244   -10.501775923416 -2.08819819122724
245   -10.695300020087 -1.69038375266987
246  -10.7340712592394 -0.722343820321731
247  -10.6060350690017 -0.0718129485915487
248  -10.4257124388372 0.565137457965585
249  -10.1341376906274  1.17470086775516
250  -9.73050292377999  1.67727610089042
251  -9.29941653134698  2.02385006777318
252  -8.45077604111274  2.41815062437493
253  -7.54422758898458  2.63342970357687
254  -6.62445162212978  2.77818355461975
255  -5.70508619889278  2.92662901196869
256  -4.78884341400756  3.11595397606596
257  -3.86784684039386  3.34654216022885
258  -2.93315105372038  3.58112179165817
259  -1.98786765473679  3.77716161473036
260   -1.0454051524002  3.91100754518955
