// Id               X                Y
  1  -0.111621618486289  3.76342878042517
  2  0.819155442484161  3.72721131144015
  3   1.74437315338308  3.61327178695024
  4   2.67888497297436   3.4159720846194
  5   3.61425023161637  3.13398873778174
  6   4.49699306685448  2.82389823490412
  7   5.39200984413629  2.55336555271539
  8    6.2972671656237   2.3274769989371
  9    7.2046609872225  2.12818287312624
 10   8.10188252952514  1.91092701298111
 11   8.97517353317206  1.61241636618222
 12   9.41606306052774  1.35480487888523
 13   9.79969084877505 0.988317109883719
 14   10.0387588302377 0.406192161190079
 15   9.88285888115792 -0.123230400837235
 16   9.15770599971279 -0.340023897428227
 17   8.64878483424486 -0.217449706934094
 18   8.54259747608218 -0.177147374659857
 19   8.48049431081283 -0.151200653884049
 20   8.42065389486561 -0.124558496884969
 21   8.36089728538951 -0.0963744075430119
 22   8.29455120900282 -0.0632668844398004
 23   8.21684600849372 -0.0221196742673903
 24   8.12614955049168 0.0290310582812307
 25   8.02289919040581 0.0911548446234802
 26   7.90850868899176   0.1644845504842
 27   7.78467822101971 0.248693517623506
 28   7.65306622864508 0.342991760599853
 29   7.51520324574356  0.44616495329318
 30   7.37248281245308 0.556631555363604
 31   7.22599785010679 0.672681139317302
 32   7.07630321710512  0.79281591268719
 33   6.92346165945934 0.915852434189401
 34   6.76725474367311  1.04083618362524
 35   6.60732967489194  1.16696621380208
 36    6.4432773603918  1.29355405830038
 37   6.27468375017007  1.41999377055816
 38   6.10117165456036  1.54573552197527
 39   5.92243724271586  1.67026343105787
 40   5.73828034433746  1.79308018162373
 41   5.54862557024703  1.91370037234248
 42   5.35353148892801  2.03165254147478
 43   5.15318701176803  2.14648758845947
 44   4.94789655977112   2.2577899879478
 45   4.73805739963309  2.36518821717639
 46   4.52413323037334  2.46836188877222
 47   4.30662776314032  2.56704453236748
 48   4.08606107818072  2.66102222063053
 49   3.86295040179133  2.75012900820583
 50   3.63779591650593  2.83424044267876
 51   3.41107141201973  2.91326636178121
 52   3.18321897398667  2.98714398300215
 53   2.95464639939708   3.0558320433093
 54   2.72572555608238   3.1193065016018
 55   2.49678954799794  3.17755804098385
 56   2.26812663606933  3.23059122235168
 57   2.03996995339031  3.27842460128289
 58   1.81248453392376   3.3210905539973
 59   1.58575641808702  3.35863335449352
 60   1.35979039848435  3.39110466500586
 61   1.13452082762686  3.41855702051195
 62  0.909834069127929  3.44103723946198
 63  0.685595554662876  3.45858190805108
 64  0.461672961060788  3.47121601138488
 65  0.237949885341987  3.47895429880626
 66  0.0143287333292757  3.48180400445173
 67  -0.209275132905134  3.47976737818361
 68  -0.432944242457457  3.47284288788024
 69  -0.656770506051685  3.46102462260046
 70  -0.880862914890078  3.44430017057219
 71  -1.10534740992902    3.422647955298
 72   -1.3303562798873  3.39603551630633
 73  -1.55600745492841  3.36442021630202
 74  -1.78237835922877  3.32775306345141
 75  -2.00948241586554  3.28598490540138
 76  -2.23725587096543  3.23907300894472
 77  -2.46555766757016  3.18698595745537
 78  -2.69417898744585   3.1297059705844
 79  -2.92285605405952  3.06722922842353
 80  -3.15128090524982  2.99956558509582
 81  -3.37910795150251  2.92673899516909
 82  -3.60595681987894   2.8487894605959
 83  -3.83141331454548  2.76577676613831
 84  -4.05503056183245  2.67778588494829
 85  -4.27633212212499  2.58493368067633
 86  -4.49481843304825  2.48737632168909
 87  -4.70997752889595  2.38531659667798
 88  -4.92130052229157  2.27901008285941
 89   -5.1283017375075  2.16876894452792
 90  -5.33054257558021  2.05496217107258
 91  -5.52765718258715  1.93801146640951
 92  -5.71937693630194  1.81838288827742
 93   -5.9055499683484  1.69657564458533
 94  -6.08615179560777  1.57311084807093
 95  -6.26128396307666    1.448523918764
 96  -6.43115937814166  1.32336410654001
 97   -6.5960751527588  1.19820311592876
 98  -6.75637512122885  1.07365268394013
 99  -6.91240332839372 0.950389624119317
100  -7.06444425017385 0.829188876334357
101  -7.21263071525903 0.710974362199994
102  -7.35679779257356 0.596895224806627
103  -7.49635761528759 0.488352352578215
104   -7.6303582943046 0.386843088083906
105  -7.75763985856738 0.293724763249229
106  -7.87688202381326 0.210091107382655
107  -7.98660957941454 0.136723858623932
108  -8.08530303589558 0.0740280265292001
109  -8.17172497819182 0.0219069132439802
110  -8.24558272492924 -0.0204545881131121
111  -8.30858573625619 -0.0549449402248929
112  -8.36552371803636 -0.0847572854904954
113  -8.42305533013736 -0.113572516125573
114  -8.48357645502237 -0.142406211383261
115  -8.59118602534974 -0.18992700767389
116  -9.09624428099236 -0.349116902035299
117  -9.84425246602083 -0.218816165039929
118  -10.0883206521805 0.199552610043709
119  -10.0361510377278 0.706481044123502
120  -9.73532859004226  1.16059924494348
121  -9.31315180852291  1.49519723262398
122  -8.45056180405089  1.86543703542218
123  -7.55344682294908  2.11343381183473
124  -6.64675993536161   2.3062220590473
125   -5.7437003593582  2.50405490954045
126  -4.85359498214698  2.74185495099487
127  -3.98060926040431  3.02604695217446
128        -3.10017698  3.30921536278583
129  -2.17929917261207  3.53342147779751
130  -1.14384471050684  3.66817018241911
131  -0.0592233432287864   4.3443311179832
132   0.92286941284686  4.31469688701758
133   1.89271444092611   4.1880163443832
134   2.84211218523538  3.97836477821693
135   3.76658571178698  3.70665593024322
136   4.67959566668663  3.41201371348797
137   5.59221214498816   3.1390721999531
138   6.51993627960704  2.90458686697357
139   7.48908044431286  2.67774005248685
140   8.50059968072573  2.37836529145694
141   9.44723529565139  1.88412735398096
142   9.94111918055503  1.42710243427298
143   10.3122864857682 0.876801394922845
144   10.5287712139351 0.362555821192452
145   10.6631562682941 -0.130331362833173
146   10.7926755213592 -0.782395365047888
147   10.7503874879119 -1.85217774580059
148   10.5394487554056 -2.24628782290319
149   10.2570861871551 -2.55387488210758
150   9.93043773243279 -2.77974614614039
151   9.57605055931156 -2.93248664826277
152   9.21105486187744 -3.01887882092857
153    8.8504795360129 -3.04820363376389
154   8.50406365107192 -3.03156203793615
155   8.17646400997231 -2.97964239768896
156   7.86891716778283 -2.90147786513022
157   7.58076991623886 -2.80421473227225
158   7.31043364412616 -2.69332430694966
159    7.0558515174382 -2.57288562660656
160   6.81473217640679 -2.44583835661534
161   6.58486316534223 -2.31431169967328
162   6.36445789752514 -2.18001897740732
163   6.15218026260647 -2.04446208828942
164   5.94697983695848 -1.90895346376339
165   5.74798166918597 -1.77461371705704
166   5.55443779260297 -1.64238206592719
167   5.36569838349516 -1.51302849593748
168   5.18118618381753 -1.38716314605617
169   5.00037090992165 -1.26524396832088
170   4.82274506304872 -1.14758556851468
171   4.64780426328019  -1.0343721488107
172   4.47503489000926 -0.925676054251716
173     4.303910161912 -0.821481363811037
174   4.13389387908374 -0.721710289372572
175   3.96444971376311 -0.626249462792909
176   3.79505345509749 -0.534973479656725
177   3.62520581906152 -0.447763922646317
178   3.45444399565249 -0.364523067969465
179   3.28235074653981 -0.285182305914795
180   3.10856044809503 -0.209705883432079
181   2.93276197876193 -0.138090920422606
182   2.75469882795188 -0.070364820793677
183   2.57416732144857 -0.00658124163754365
184   2.39101442677398 0.0531842933646935
185   2.20513708473665  0.10883828784336
186   2.01648503249941 0.160272288719442
187   1.82506805440306 0.207365333961144
188   1.63096613504214   0.2499868712625
189   1.43433776173365 0.288001467311773
190   1.23541987815114 0.321275938367262
191   1.03451521085746 0.349687965835547
192  0.831968564943886 0.373133869451187
193  0.628139248305433 0.391533195780432
194   0.42337812005216 0.404829203306084
195  0.218014795441676 0.412986087913389
196  0.0123561475378936 0.415984831785818
197  -0.193306102219916 0.413819629272486
198  -0.398682616138215 0.406496277083633
199  -0.603473011567825 0.394033090661561
200  -0.807356370567798 0.376464019300699
201  -1.00998989078526 0.353842770610578
202  -1.21101848178672 0.326246090038441
203  -1.41009508761106 0.293774229678728
204  -1.60690717475746 0.256547462833931
205  -1.80120130641035 0.214699165174648
206  -1.99279804152582 0.168367566927491
207  -2.18159426613923 0.117688596220943
208  -2.36755619251048 0.0627910585228502
209  -2.55070935545874 0.00379377189353025
210  -2.73113087335187 -0.0591966247339999
211  -2.90894614699144 -0.126088366486365
212  -3.08432949096784 -0.196808268995138
213  -3.25750690210834 -0.271306244958395
214  -3.42875902450412 -0.349559928274328
215  -3.59842278165186 -0.431578429330626
216  -3.76689068356467 -0.517404131230537
217   -3.9346072982259 -0.607111426684705
218  -4.10206278602518 -0.700801376274623
219  -4.26978378834597 -0.798591470053864
220  -4.43832240338615 -0.900600051526049
221  -4.60824450893216 -1.00692556867232
222  -4.78011926737211 -1.11762165037806
223  -4.95451212833467 -1.23266994600502
224  -5.13198377381131 -1.35195341612918
225  -5.31309694890433 -1.47523289706859
226  -5.49843188711489 -1.60212892654477
227  -5.68860941090247  -1.7321090626366
228  -5.88431966347489 -1.86447892716596
229  -6.08635517229069 -1.99837411148361
230  -6.29565221486233 -2.13275155785373
231   -6.5133593743906 -2.26638463159257
232  -6.74095467983591  -2.3978577854526
233  -6.98032999693581 -2.52548697523466
234  -7.23366333468284 -2.64706835488439
235  -7.50315579863252 -2.75955210303489
236  -7.79082784559605 -2.85877100186288
237  -8.09826502118109 -2.93916933098174
238  -8.42608784302076 -2.99350113613139
239  -8.77295899144021 -3.01263626597597
240  -9.13407005207712 -2.98584293620203
241  -9.49956251859714 -2.90208032020331
242  -9.85445281717987 -2.75222377594882
243  -10.1818698201829 -2.52969212588139
244  -10.4656133407962 -2.22632492978358
245  -10.6796621040863 -1.83712648691211
246  -10.7326603582172 -0.753043693241285
247  -10.6143378116272 -0.0899439100274256
248  -10.4497800016037 0.575917311201954
249  -10.1693971322872  1.19963918117677
250  -9.78113744963157   1.7019304898793
251  -9.36235426045687  2.05454716127731
252  -8.52882432619898  2.47276356459173
253   -7.6332316050862  2.72786220723058
254  -6.71972988806351  2.92086549068975
255  -5.80471271414651  3.12028000652275
256  -4.89038622718777  3.35871700025963
257  -3.95961473622378  3.63185752465258
258  -2.99392530037794   3.8995597031127
259  -2.00964731770697  4.11947166934084
260  -1.04087965793833  4.27022886125094
