// Id               X                Y
  1  -0.106582125283001  4.48267094435973
  2  0.888580290079287  4.43336323292236
  3   1.85474301509567  4.29881326500936
  4   2.76697366705141  4.07394387155554
  5   3.64740063630156  3.72271185738377
  6   4.49320135863411  3.34940292138559
  7   5.33727732945366  2.98047277540951
  8    6.1948079165649  2.64387087519664
  9   7.05914664089515  2.33344912991179
 10   7.91822649854419  2.02518873117758
 11   8.75996316206252   1.6756921267138
 12   9.20356670050046   1.4129852885815
 13   9.60518318566205   1.0590341790734
 14   9.90248065924155 0.493134340627879
 15   9.77649529832624 -0.136233353553939
 16   9.06610063529675 -0.375710228143921
 17    8.6176316088066 -0.285463027926507
 18   8.53433487459478 -0.256525750973991
 19   8.47331766459236 -0.232799685909018
 20   8.41354610025432 -0.207498109610841
 21   8.35319682932352 -0.179848114793034
 22   8.28655745978848 -0.14688729056009
 23    8.2092699269632 -0.10544018509188
 24    8.1197759626725 -0.0531559248654657
 25   8.01860515207956 0.0114371910708698
 26   7.90737466733616 0.0890237548533234
 27   7.78803230244913 0.179634437442128
 28   7.66237468745215 0.282793362715212
 29   7.53182325082756  0.39764554503722
 30   7.39748855853909 0.522938498627141
 31   7.26051016711207 0.656765126498362
 32   7.12188300454323 0.796832675692565
 33    6.9818332434237 0.941316028541959
 34   6.84000703817812  1.08890164615537
 35   6.69582444040784  1.23854389110706
 36   6.54861532467383  1.38937653295296
 37   6.39767440649089  1.54067802735177
 38   6.24229577742693  1.69184151463381
 39   6.08180224675904  1.84234220109127
 40   5.91557592431785  1.99170272976009
 41    5.7430914424038  2.13946073791425
 42   5.56394866794847  2.28514450748216
 43   5.37789913499114  2.42826140471128
 44   5.18486076922944  2.56830013290903
 45   4.98491813568106  2.70474378304823
 46   4.77830881858949  2.83708824457815
 47   4.56539925836654  2.96486037461292
 48   4.34665475844681  3.08763184969595
 49   4.12260841976406  3.20502680721592
 50   3.89383284719711  3.31672334134566
 51   3.66091711766193  3.42245019267574
 52   3.42445013307334  3.52198051177406
 53   3.18501033286176  3.61512457788748
 54   2.94316084217599   3.7017230672687
 55   2.69944839400953   3.7816420797365
 56   2.45440367966284  3.85477072437144
 57   2.20854013731134  3.92102160992374
 58   1.96234776652957  3.98033399774742
 59   1.71627882142164   4.0326785865659
 60   1.47072390440251  4.07806196712114
 61    1.2259806983646  4.11652802079028
 62  0.982223006105666  4.14815355260904
 63  0.739482298096298  4.17303692079344
 64  0.497652694874729  4.19128133651341
 65  0.256520293108248  4.20297732073108
 66  0.015804635362908  4.20818912397913
 67  -0.224804029283103  4.20694720324448
 68  -0.465618716186951  4.19924575253332
 69  -0.706934627764221  4.18504370357399
 70  -0.949002176347708  4.16426934609011
 71  -1.19199112781804  4.13682999150754
 72  -1.43595556092439  4.10262677631666
 73  -1.68081445286989  4.06157168281714
 74  -1.92635548666662  4.01360214811162
 75  -2.17225774281774  3.95868981946363
 76      -2.4181222172  3.89684282751025
 77  -2.66349994228657  3.82810328782388
 78  -2.90791217405489  3.75254265985246
 79  -3.15086171309332  3.67025733933596
 80  -3.39183727822388  3.58136607198244
 81  -3.63031397177156  3.48600993999467
 82  -3.86575290127776  3.38435500435515
 83  -4.09760255249707  3.27659720066746
 84   -4.3253039006085  3.16296871238391
 85  -4.54830062310957  3.04374471074229
 86  -4.76605510527485   2.9192490429596
 87  -4.97807011137531  2.78985724588501
 88  -5.18391496618251  2.65599532620225
 89  -5.38325390041681  2.51813328457752
 90  -5.57587307996724  2.37677350462203
 91  -5.76170213966489  2.23243579341565
 92  -5.94082620177786  2.08564262607307
 93  -6.11348564272841  1.93690927997317
 94    -6.280063155807  1.78674327264216
 95  -6.44106028142028  1.63565552241695
 96  -6.59706742236276  1.48418253176643
 97  -6.74873132459625  1.33291610956301
 98  -6.89672169004735  1.18253617993866
 99  -7.04169445748065  1.03384367315021
100  -7.18424270472351  0.88779523335758
101  -7.32479965746727 0.745565739574319
102  -7.46336305905292 0.608747443832093
103  -7.59911169861759 0.479554252165904
104  -7.73073223180675 0.360234819134898
105  -7.85706032369181 0.252293785599194
106  -7.97690297507604 0.156626590543905
107  -8.08876678731263 0.0737524698388178
108   -8.1909630310498 0.00376378965261901
109  -8.28204281958138 -0.0538481067490659
110  -8.36153432684819 -0.100389054713133
111  -8.43092241907638 -0.138137774146887
112  -8.49437933596532 -0.170305195237099
113  -8.55735048107292 -0.20000238262448
114  -8.62156669153811 -0.228003958474308
115  -8.71074588331029 -0.263080312754047
116  -9.15743997441575 -0.374780796943545
117  -9.88191982179532 -0.174688453297992
118  -10.0464943705949 0.404553428412327
119  -9.80185645341637 0.985104853036559
120  -9.42354777717035  1.36245677051983
121  -8.99150305157878  1.64274634371611
122  -8.15536805959514  2.00623442921903
123  -7.29505635279745  2.31252417309907
124  -6.42515069875458  2.61260812418966
125  -5.55929288301773  2.93747943045616
126  -4.70635291510127  3.29873387324958
127  -3.86054499162527   3.6843097970774
128  -3.01147791099692  4.03409929382092
129  -2.10656826584986  4.25344241624659
130  -1.09144268079127  4.39440213441031
131  -0.135851977563329  5.06865090588475
132  0.837637273076164  5.03290309899696
133   1.80471017958276  4.89685657814531
134     2.766078216885  4.65971569531852
135   3.74089615491244   4.3180188809163
136   4.66920796277226  3.93421560924918
137   5.55961692927656  3.55702961875302
138   6.45250778018868  3.20667453400204
139   7.36451317905042  2.87163917788395
140   8.33308570011564  2.47977333618673
141   9.24996299385371  1.93957769050486
142   9.73789479776261   1.4797968442968
143   10.1230705580843 0.934660589357303
144   10.3887668133851 0.359827137707464
145   10.5467672222696 -0.127997981508527
146    10.710874190246 -0.776671944868084
147   10.7284278926244 -1.91737745305148
148   10.5231339976732 -2.32751087407265
149   10.2463466648826 -2.64125290279162
150   9.92381724216356 -2.87141131418455
151   9.57260027385791 -3.02691979369865
152    9.2096232621754 -3.11461774449928
153   8.85000723383536 -3.14342548170072
154   8.50370287621931 -3.12405462386165
155   8.17544966363505 -3.06683216687261
156   7.86649020597699 -2.98043662557713
157   7.57625164803057 -2.87173002213829
158   7.30343490298751 -2.74609591165126
159   7.04654558101761 -2.60784132723937
160   6.80396477490139  -2.4604103578032
161   6.57367064485824 -2.30629547727412
162   6.35349337898477 -2.14722597401467
163   6.14185645430432 -1.98482652204539
164   5.93766125502111 -1.82072346693041
165   5.73998624228566 -1.65640077663721
166   5.54800433356565 -1.49315878831669
167     5.360973411505 -1.33211811898366
168   5.17823682927986 -1.17423103996715
169   4.99921972837042 -1.02029081068644
170   4.82341673200369 -0.870935935216209
171   4.65037136513495 -0.726650629348053
172   4.47965120987942 -0.587766026599689
173   4.31082446094705 -0.454467259640064
174   4.14344275034772 -0.326809406730146
175   3.97703277463106 -0.204742006385982
176   3.81109676850359 -0.088139241699863
177   3.64512010522588 0.023168196093062
178   3.47858346622746 0.129363299338222
179    3.3109769232234 0.230617700785778
180   3.14181362457256  0.32707286103491
181   2.97064132877203 0.418827832426218
182    2.7970506408169 0.505933088910499
183   2.62067944423108 0.588389325209514
184   2.44121371428753 0.666149769664541
185   2.25838569553812 0.739124391871946
186   2.07197133543412 0.807184429507254
187   1.88178977423541 0.870165966985345
188   1.68770828737225 0.927871952663245
189   1.48965579293123 0.980073077993574
190   1.28764613063859  1.02650923534983
191   1.08180826807567  1.06689438404669
192  0.872415008318444  1.10092777943362
193  0.659897574427698  1.12831279388875
194  0.444835536742604  1.14878102213652
195  0.227922362780592  1.16211600744785
196  0.00992009274359327  1.16817078838542
197  -0.208379905154303  1.16687713066928
198  -0.426183452361495  1.15824827273681
199  -0.642714667257904  1.14237753663356
200  -0.857243700850736   1.1194325922785
201  -1.06912492406967  1.08964320667947
202  -1.27783594283334  1.05328183649672
203  -1.48300181569491  1.01064032579087
204  -1.68439564236569 0.962008357261577
205  -1.88191897754718 0.907658034234251
206  -2.07557304301644 0.847835581650634
207  -2.26543150821312 0.782758322643878
208  -2.45162107511349 0.712614046984783
209  -2.63431127379313  0.63756033856923
210  -2.81371171513206  0.55772255549066
211  -2.99007374816042 0.473190312826709
212  -3.16369346775161 0.384013192382655
213  -3.33491367084193 0.290196928713283
214  -3.50412321101565 0.191701546782562
215  -3.67175301750696 0.0884429256001395
216  -3.83826875229864 -0.0197009205573728
217  -4.00416069179297 -0.132877911242451
218  -4.16993197523721 -0.251243948443135
219  -4.33608687359956 -0.374939360237147
220   -4.5031211506223 -0.504061135313041
221  -4.67151678112785 -0.638633369058277
222  -4.84174306214044 -0.778579101013665
223  -5.01426530495879 -0.923696781382647
224  -5.18956077856342 -1.07364358262622
225  -5.36813966591903 -1.22792568968561
226  -5.55056721580892 -1.38589328897914
227  -5.73748297279454  -1.5467365360353
228   -5.9296145601557 -1.70947938073641
229  -6.12778700889246 -1.87297080273809
230  -6.33293528409047 -2.03587770379915
231  -6.54615621196359 -2.19670148455167
232  -6.76893812393517 -2.35389220389302
233  -7.00349472199287 -2.50592366384974
234  -7.25234406860687 -2.65075732739472
235  -7.51755613524627 -2.78523856138252
236  -7.80085189615452 -2.90513313992768
237  -8.10375221067758 -3.00508994457949
238  -8.42719158465103 -3.07828999759852
239  -8.77051417844469 -3.11605333989206
240  -9.12983774242553 -3.10786211204178
241  -9.49627622018315 -3.04241483340205
242  -9.85572760607047 -2.90968733026557
243  -10.1920045649051 -2.70144249593183
244  -10.4887170396786 -2.40728111280163
245  -10.7202308715658 -2.01380788758193
246  -10.7772881422611 -0.870653120343508
247  -10.6552195023282 -0.213232830585204
248  -10.5291078989655 0.281628648724821
249  -10.3117948811977 0.836767183859313
250  -9.95858858155515  1.40117768878479
251  -9.49057537973146  1.88212110052072
252  -8.58597203319749  2.44555679290861
253  -7.61456273140235  2.84232545707889
254  -6.69142174894959    3.171271033055
255  -5.79359657037034  3.51004685312709
256  -4.90383453370954  3.87945521198363
257  -3.96918167096575  4.26881185878052
258  -2.99040743970511  4.61780787114626
259  -2.04702981802895  4.85638733200571
260  -1.09793481578624  5.00528217336008
