// Id               X                Y
  1  -0.112734666418495  3.52805543927421
  2   0.98683181118504  3.49363551925898
  3   1.94524453339872    3.345376436852
  4   2.86007682246502  3.14148058057496
  5   3.70869252005951  2.89367589792508
  6   4.54396230006545  2.63325716047858
  7   5.39344504415501  2.40870529654284
  8   6.25283564852085  2.22273858339497
  9   7.11068084826408  2.05315540253869
 10   7.95416723052824   1.8622290251865
 11   8.77901795900424  1.60088883678508
 12   9.23110014399149  1.35867737082801
 13   9.62858516491911  1.00716497966516
 14   9.89108934710493 0.438343263075061
 15   9.76160714931359 -0.0988522683408701
 16   9.05022286037373 -0.354477849223055
 17   8.53742139201337 -0.258571648865812
 18   8.43605097249068 -0.225706642194316
 19   8.37668687291302 -0.204315849847231
 20   8.31948588495078 -0.182235997535321
 21   8.26229089541037 -0.158717761955147
 22   8.19840380582274 -0.130796943204193
 23   8.12284902320871 -0.0955555998124974
 24   8.03379132650358 -0.0510284562087522
 25   7.93156378231575 0.00389873437205219
 26   7.81758030995925 0.0696587417437717
 27   7.69363216680921 0.146126280308669
 28   7.56153225437098 0.232682324941398
 29   7.42299215929264  0.32824750402572
 30   7.27955415849639  0.43136294174724
 31   7.13241940010257 0.540417878713631
 32   6.98226719747066 0.653935017920199
 33   6.82928354211547 0.770693962007892
 34   6.67333679211441 0.889694750106877
 35   6.51412633921235  1.01009739955942
 36   6.35126896296062  1.13118331804292
 37   6.18435302795808    1.252327704644
 38   6.01298064646204  1.37297456217796
 39   5.83680486393809  1.49261369214664
 40   5.65556275546296  1.61076196492935
 41   5.46910208294905  1.72695156598082
 42   5.27739804828522  1.84072668760816
 43   5.08055767978866  1.95164794851903
 44    4.8788117402736  2.05930180807185
 45   4.67249647261575  2.16331134615267
 46    4.4620290146694  2.26334520123321
 47   4.24788062040025  2.35912272239189
 48   4.03055118041802  2.45041481299524
 49   3.81054742162556   2.5370410314029
 50    3.5883659987187  2.61886409275285
 51   3.36448170023366   2.6957830537512
 52    3.1393402258369  2.76772632995241
 53   2.91335438301108  2.83464545168577
 54   2.68690202045129   2.8965101987989
 55   2.46032359006768  2.95330546775207
 56   2.23391716444608  3.00502985580852
 57   2.00792953384503  3.05169544192359
 58   1.78254412082637  3.09332768016237
 59   1.55786954115685  3.12996401587234
 60   1.33393489190667  3.16165023034523
 61   1.11069676492654  3.18843471841695
 62  0.888058059078075  3.21036224855609
 63  0.665892960364377  3.22746922309374
 64  0.444070023315505  3.23978168256459
 65  0.222467190045751  3.24731593283861
 66  0.000976642115240439   3.2500806370744
 67  -0.220498995087796  3.24807892335465
 68  -0.442055447174948  3.24130939149348
 69  -0.663796085784863  3.22976556332594
 70  -0.885837185287235  3.21343407835334
 71  -1.10830531396113   3.1922926223182
 72  -1.33132488303121  3.16630898150736
 73  -1.55499716112498  3.13544246175257
 74  -1.77937602627013  3.09964803342232
 75  -2.00444812254228  3.05888225522703
 76  -2.23012359586578  3.01310911068983
 77  -2.45623853628294    2.962304092887
 78  -2.68256512605161  2.90645604910422
 79   -2.9088236319458  2.84556753493648
 80  -3.13469199181015  2.77965497714837
 81  -3.35981166540832  2.70874976580674
 82  -3.58379068114339  2.63290088067297
 83  -3.80620581309157  2.55217915155878
 84  -4.02660589186388  2.46668287990916
 85  -4.24451788775064   2.3765442789516
 86  -4.45945690944376  2.28193596011664
 87  -4.67094071401456  2.18307648609909
 88  -4.87850867475082  2.08023387944759
 89  -5.08174433796701   1.9737260378685
 90  -5.28029972656273   1.8639174051541
 91  -5.47391856181021  1.75121206466106
 92  -5.66245487406255  1.63604457977232
 93  -5.84588344287687  1.51887107449762
 94  -6.02429943596894  1.40016369592091
 95  -6.19790643061584  1.28041124282324
 96   -6.3669940785789  1.16012732187461
 97  -6.53190799127297  1.03986548526408
 98  -6.69301407170951 0.920239382935254
 99  -6.85065708519092 0.801945893638248
100  -7.00510770458566 0.685791607172045
101  -7.15647915677008  0.57273081504298
102  -7.30458186803785 0.463928153643242
103  -7.44875200509451 0.360801591660715
104  -7.58784014007664 0.264902111429848
105  -7.72039594630817 0.177642351224065
106  -7.84480557285574 0.100100482565717
107   -7.9593414366173 0.0329462524184615
108  -8.06228888136446 -0.0236086028650907
109   -8.1522969246677 -0.0698933940481517
110  -8.22906817616167 -0.106924509575367
111  -8.29444062332753 -0.13661813081094
112  -8.35344257401867 -0.161932929606594
113  -8.41307020325529 -0.186057397836964
114  -8.47584156900679 -0.209839689554969
115  -8.58603115151129 -0.247537605492591
116  -9.09984845910906 -0.355057794161177
117  -9.82086152299621 -0.122169592693591
118  -9.96982993435297 0.403293889746549
119  -9.73396559987418 0.975808884957391
120  -9.35168362111832  1.33866288499783
121  -8.90885045666381  1.59099305135006
122  -8.09135429671841  1.86142309659244
123  -7.25253064065295  2.05130031042564
124  -6.39732701233077  2.21113647676263
125  -5.53869159323181  2.38313896500564
126  -4.68798236107815  2.59434961468349
127  -3.85298805308385  2.84850907245997
128  -3.02367145975914  3.12271366326332
129  -2.14978508164061  3.32132685570501
130  -1.10851614148517  3.44144547386633
131  -0.0787944476672983  4.10909329540748
132  0.874194937759458  4.07257304589416
133   1.83530927886828  3.94475609797357
134   2.77801853933389  3.74642252017682
135   3.70279026058735  3.50343943784513
136   4.61549667102607  3.24669674933765
137   5.52308301302438   3.0140212973672
138   6.43703530058765  2.81419296172442
139    7.3607941348854  2.62014656521502
140   8.32310801207867  2.35326142516783
141   9.26459554614726  1.88376437999355
142   9.76122783731118  1.44703702747005
143    10.147213623834 0.915754413356348
144    10.383116735617 0.416734079785243
145   10.5409299073733 -0.0680474062224281
146   10.7041060105193 -0.711304491215971
147   10.7234981058914 -1.78077306951443
148   10.5368578757661 -2.18753398507596
149   10.2743278460268 -2.51181740114314
150   9.96255092297494 -2.75745121506468
151   9.61846750183311 -2.93167026038254
152   9.25945024480809 -3.03999530595179
153   8.90116520448418 -3.09054832342303
154   8.55423672258787 -3.09370217009144
155   8.22415071715953 -3.05983832309501
156   7.91278167545474 -2.99793843560646
157   7.61992151479719 -2.91521219618301
158   7.34428118922169 -2.81723492861066
159   7.08401367744046 -2.70820730176867
160   6.83701631435112 -2.59122014854889
161   6.60125213843516 -2.46857217253034
162   6.37503685041299 -2.34210890806317
163   6.15708513256561 -2.21342670715615
164   5.94638833167393 -2.08392477805889
165   5.74210815242707 -1.95481101632714
166   5.54352514661371 -1.82711153597279
167   5.35001215062504  -1.7016831263324
168   5.16101314601911 -1.57922367105947
169   4.97602140965362  -1.4602799785301
170   4.79455680539457 -1.34525496316935
171   4.61614490654243 -1.23441709798516
172   4.44030144500394 -1.12791459923626
173   4.26652459071715 -1.02579513849364
174   4.09429557000691 -0.928029884066468
175   3.92308622054476 -0.834539306361424
176   3.75237097066393 -0.745217860593467
177   3.58164053233482 -0.659955204966551
178   3.41041502397203 -0.578652566868162
179   3.23825492559223 -0.501233828159901
180   3.06476896180573 -0.42765164586443
181   2.88961861150557 -0.357889407977593
182   2.71251947700871 -0.291960087232111
183   2.53324027865327 -0.229903156647578
184   2.35160081348008 -0.171780698164789
185   2.16747074424072 -0.117673648873228
186   1.98077125822514 -0.0676787320930933
187   1.79148091481443 -0.0219059895572042
188   1.59964492357255 0.0195238940149198
189   1.40538402611562 0.0564836947701878
190   1.20889694489059 0.0888459856089869
191   1.01045150817786 0.116491185841511
192  0.810364522237239  0.13931539026273
193  0.608976131911304  0.15723570524178
194  0.406626758074648 0.170191894408772
195  0.203642707623804 0.178144787908647
196  0.000332436481858035 0.181073065405832
197  -0.203008203411758 0.178970261182702
198  -0.406085538932886 0.171843363790426
199  -0.60859713089759 0.159713560216373
200  -0.810225006842467 0.142618759986339
201  -1.01063705460331 0.120616693063614
202  -1.20949870142044 0.0937868285404379
203  -1.40649369816985 0.0622294451750136
204  -1.60134881626882 0.0260611432877629
205   -1.7938547904541 -0.0145923576345688
206  -1.98387724645391 -0.0596040778734014
207  -2.17135635467327 -0.10885227413166
208  -2.35629910061614 -0.162224764768082
209  -2.53876998088863 -0.219621630219289
210  -2.71888436611531 -0.280957433491076
211  -2.89680587335684 -0.346163854442503
212  -3.07274685546808 -0.415192976325735
213  -3.24697017041905 -0.488020833852069
214  -3.41979041466911 -0.564650413415071
215   -3.5915732635371 -0.645113089319477
216  -3.76273210932653 -0.729467430137937
217  -3.93372169817117 -0.817794383187358
218  -4.10502894987771 -0.910188052182554
219  -4.27716165793252 -1.00674166416257
220  -4.45063634146267 -1.10752891511019
221  -4.62596710957456 -1.21258167154392
222   -4.8036578357427  -1.3218658505188
223   -4.9841999549924 -1.43525791220797
224  -5.16807752546384 -1.55252439836338
225  -5.35577980393503 -1.67330608193957
226  -5.54781988570403 -1.79710671066934
227  -5.74475678439136 -1.92328468112748
228  -5.94721852872048 -2.05104509057454
229  -6.15592597884449 -2.17942996992557
230  -6.37172240903754 -2.30730647666748
231  -6.59562723031381 -2.43335741572795
232  -6.82894525280167 -2.55607635158686
233  -7.07339201776235   -2.673717359164
234  -7.33103697858495 -2.78408653990058
235  -7.60401740433215 -2.88420408326987
236  -7.89425548356327 -2.96999764843516
237  -8.20317785926494 -3.03603051149162
238  -8.53119418869372 -3.07522013254179
239  -8.87670835944271 -3.07867100903116
240   -9.2346040757972 -3.03599631151455
241  -9.59468583081537 -2.93666016310753
242  -9.94164830678255 -2.77222855232314
243  -10.2583643343956 -2.53692640141238
244   -10.528532024598  -2.2232701613455
245  -10.7256626161984 -1.82884241953883
246  -10.7428299919092 -0.762077019579606
247  -10.6024243949787 -0.114144458630269
248  -10.4624545949158 0.375857424242894
249  -10.2471777787771 0.876981699765718
250  -9.88023102157604  1.41834037000034
251  -9.39574574420533  1.86703110142236
252  -8.46309867977245  2.34962186869586
253  -7.50866056640195  2.61577044462334
254  -6.58497798437393  2.80145668454858
255  -5.67068917033535  2.98804910523387
256  -4.76395412841635  3.20870282841567
257   -3.8545446509379  3.46149133525123
258  -2.92711669602235  3.70896071261636
259   -1.9853633210349  3.90934509312988
260  -1.03650051795706  4.04701491175301
