// Id               X                Y
  1  -0.0913363420323648   2.1475425848278
  2  0.855315682359577  2.12837841444466
  3   1.80968690812911  2.06575435132241
  4    2.7332828220529  1.97460704185205
  5   3.63679057934602  1.84351596579853
  6   4.54776952811074  1.77282614042293
  7   5.46379707548844  1.77032189556799
  8   6.37917130487674  1.81525577099422
  9   7.29427332563891  1.85419073134345
 10   8.20963587168935  1.80818907590102
 11    9.1082285737986  1.59030467050874
 12   9.56052672941303  1.30622953547364
 13   9.88637603325767 0.881329779627124
 14   9.96053141639251 0.381163996949688
 15   9.73334460486033 -0.0484703162006796
 16   8.98823449530492 -0.230225753407783
 17   8.28889410995285 -0.0538158478154295
 18   8.08804105966441 0.0155483806209347
 19   8.02203138023615 0.0398277539927403
 20   7.96962311061703 0.0595787398283152
 21   7.91792466851355 0.0794649547652402
 22   7.85595348192457  0.10376530415647
 23   7.77934409705457  0.13446003363709
 24   7.68763041239003 0.172026254268062
 25   7.58201506473258 0.216203621758479
 26   7.46421261277785 0.266364235962896
 27   7.33593788519701 0.321701047444751
 28   7.19866892392778 0.381344030985046
 29   7.05355038004052 0.444440586211002
 30   6.90139594585403 0.510197986611747
 31   6.74275575215259 0.577892293571665
 32   6.57800907584329 0.646858797820279
 33   6.40745357649948 0.716478474603141
 34   6.23137730277875 0.786168720042112
 35   6.05010862432364 0.855381349295611
 36   5.86404336248947 0.923607465412061
 37   5.67365119598172 0.990386680757835
 38   5.47946589326339   1.0553171956221
 39   5.28206539482398  1.11806353035099
 40   5.08204774798132  1.17835994557119
 41   4.88000766838137  1.23600909646386
 42   4.67651675369195  1.29087665856019
 43   4.47210872395924  1.34288327445481
 44   4.26726983506744  1.39199525327854
 45   4.06243385559982  1.43821520918007
 46   3.85798060125651  1.48157345912752
 47   3.65423682432933   1.5221206549975
 48   3.45147813254082  1.55992186124348
 49   3.24993054041033  1.59505210384779
 50   3.04977037159639  1.62759326656798
 51   2.85112178926806  1.65763205260933
 52   2.65405240987828  1.68525856373848
 53   2.45856902231532  1.71056494706092
 54   2.26461659915801  1.73364363330249
 55   2.07208358653626  1.75458498594778
 56   1.88081456794414  1.77347459206841
 57   1.69062861040073  1.79039073400519
 58   1.50133937702754  1.80540261206771
 59   1.31277251750704  1.81856964176844
 60   1.12477700186392  1.82994178084985
 61  0.937229187442768  1.83956053999418
 62   0.75003053851118   1.8474602084045
 63   0.56310135755792  1.85366888788508
 64  0.376373349202085  1.85820911047698
 65  0.189783384776799  1.86109802388932
 66  0.003269777873847  1.86234728746216
 67  -0.183228864229845   1.8619628860322
 68  -0.36977319441385  1.85994503674048
 69  -0.556422651107945  1.85628826226457
 70  -0.743236532694303   1.8509815769084
 71  -0.930277645058999  1.84400862669174
 72  -1.11761855287555  1.83534758279144
 73  -1.30534928297265  1.82497063538676
 74  -1.49358430713375     1.81284307092
 75   -1.6824661357411  1.79892210491826
 76   -1.8721631524578  1.78315581981598
 77  -2.06286049254722  1.76548264396808
 78  -2.25474462887747   1.7458317389559
 79  -2.44798435857092  1.72412442348955
 80  -2.64271225987448  1.70027642668511
 81  -2.83901062797081   1.6742004859011
 82   -3.0369042082908  1.64580874468527
 83  -3.23635946593483  1.61501461521359
 84   -3.4372879793262  1.58173413400457
 85  -3.63955082291745  1.54588716075346
 86  -3.84296153094574  1.50739891014278
 87  -4.04728664410139  1.46620226686465
 88  -4.25224409335816  1.42224120810334
 89  -4.45750038008337  1.37547553194884
 90  -4.66266773728252  1.32588698864132
 91  -4.86730245118671  1.27348680304037
 92  -5.07090547344538  1.21832441086976
 93  -5.27292641032005  1.16049697076661
 94  -5.47277186926302  1.10015885794639
 95  -5.66981884016917  1.03752995042088
 96  -5.86343312816907 0.972901220247215
 97  -6.05299170719182 0.906636151518732
 98  -6.23790622329939 0.839167052612827
 99  -6.41764297688271 0.770986523944649
100  -6.59173306025597  0.70263601299753
101  -6.75976552901839 0.634695022506085
102  -6.92135695094351 0.567775422963814
103   -7.0760929950328 0.502524610689135
104  -7.22344399767331 0.439637712857082
105  -7.36266869398736 0.379872092735766
106  -7.49273517941274 0.324049904372664
107   -7.6122968892292 0.273032467375731
108  -7.71976046673465 0.227656466352736
109  -7.81349655856265 0.188623886853567
110  -7.89232510475912 0.156309945817942
111  -7.95659543971876 0.130377114533201
112  -8.01040429074657 0.108989419152475
113  -8.06480503056322 0.0876963264378779
114  -8.13415590959097 0.0610765745109283
115  -8.34836928202871 -0.0170451789142705
116   -9.0468356982073 -0.215562088155076
117  -9.80117793461861 -0.0686110488198406
118  -10.0521045113192 0.347317121187597
119  -10.0077454131454  0.84995201525491
120   -9.7074403923331  1.29029071367596
121  -9.27135113540105  1.59372726326036
122  -8.38221064638434  1.83942772433057
123  -7.46939324622961   1.8977252777856
124   -6.5559689332481  1.85874114249996
125  -5.64246181202859  1.80460182879436
126  -4.72747603181045  1.79247102200876
127  -3.81591874808093  1.84713533603153
128  -2.91147255465959  1.96531776326634
129  -1.99397065368839  2.05746584571435
130  -1.03773324203395  2.09795846801261
131  -0.0921924016024998  2.73573040101672
132  0.834472106914745  2.71905106554549
133   1.75944739304849  2.65665883676479
134   2.68320653140952  2.56141515864439
135    3.6074072170424  2.45839116280828
136    4.5296127123256   2.3920437863664
137   5.45125813415676  2.38911365971375
138   6.37309252477391  2.43407610713323
139    7.2984780398246  2.47354459979853
140   8.22596436141438  2.41741952145522
141   9.11591142639372  2.14292915889265
142   9.57265334619671  1.84510214507057
143   10.0036970550381  1.37899199357357
144   10.3179558713314 0.772858700804163
145   10.5014672252351 0.115774353396885
146   10.6213032512242 -0.531935740071437
147   10.5752248987804 -1.39315203135382
148    10.409490114547 -1.76305507553261
149   10.1668930770844 -2.08474008922164
150   9.87121187582024 -2.34283543665962
151   9.53945799064753 -2.53819605367031
152   9.19106340665101 -2.67305110733577
153   8.84201681807423  -2.7546677231711
154   8.50260392691056 -2.79295510583802
155   8.17814210416889 -2.79782345307307
156   7.87056585031019 -2.77783419275297
157    7.5798229404677 -2.73984187547861
158   7.30487051932365 -2.68912704640639
159   7.04429929161834 -2.62969925508653
160   6.79666410926794  -2.5646023755287
161   6.56061668659986 -2.49615574755776
162   6.33493109503531 -2.42612492700606
163    6.1184846713248 -2.35583986279736
164   5.91022778956405 -2.28628027514352
165   5.70915792026574 -2.21814263045517
166   5.51430426109204 -2.15189726126129
167   5.32472403301554 -2.08783951118897
168     5.139508166855 -2.02613561335098
169   4.95779242504045 -1.96686245469576
170    4.7787699502694 -1.91004018791159
171   4.60170223818537 -1.85565724342425
172    4.4259268598935 -1.80368807340797
173   4.25086139203302  -1.7541045602816
174   4.07600375470647  -1.7068823306425
175   3.90092955439329 -1.66200327643905
176   3.72528722095316 -1.61945549378447
177   3.54879185488613 -1.57923168841383
178   3.37121884533537  -1.5413269109421
179   3.19239845703391 -1.50573628214532
180   3.01221254616245 -1.47245313068202
181   2.83059407256586 -1.44146768171307
182   2.64752894298413 -1.41276614442408
183   2.46305817697461 -1.38632985996894
184   2.27727722717232   -1.362134214737
185   2.09032947635008  -1.3401473168809
186   1.90239280722659 -1.32032881527193
187   1.71366090860758 -1.30262945292023
188   1.52432319014633 -1.28699183710935
189   1.33454774058018 -1.27335254071277
190   1.14447060491548  -1.2616452365676
191  0.954192529713525 -1.25180430615758
192  0.763782197908973 -1.24376832958198
193  0.573283541118155 -1.23748301248308
194  0.382724265647166 -1.23290333916904
195  0.192123193657035 -1.22999496385149
196  0.00149509131365053  -1.2287349998305
197  -0.189147087862151 -1.22911241556989
198  -0.379791561877644 -1.23112820656749
199  -0.570427108816064 -1.23479541311145
200  -0.761040900177165 -1.24013893471049
201  -0.951613750113183 -1.24719499073816
202  -1.14211275148532 -1.25601002882049
203  -1.33248246130808 -1.26663891411817
204  -1.52263683082674 -1.27914235263946
205  -1.71245458385814 -1.29358369234094
206   -1.9017804595116 -1.31002545835474
207  -2.09043357131964  -1.3285261371874
208  -2.27822227797371 -1.34913774290916
209  -2.46496293317529 -1.37190452045082
210  -2.65049850356006 -1.39686279895272
211  -2.83471309832193 -1.42404164713512
212  -3.01754013226578 -1.45346380045857
213  -3.19896440645351 -1.48514643771609
214  -3.37902052195794 -1.51910170583318
215   -3.5577907505094 -1.55533721074893
216  -3.73540475306552 -1.59385682232921
217  -3.91204213592664 -1.63466204493592
218  -4.08793760838969 -1.67775397184785
219  -4.26338784905005 -1.72313558131397
220   -4.4387590300834 -1.77081390059827
221  -4.61449403316248 -1.82080136047987
222  -4.79111850793752 -1.87311546242447
223  -4.96924499061866 -1.92777566984238
224  -5.14957433608137 -1.98479622520581
225  -5.33289380826136 -2.04417343100715
226  -5.52007145171067 -2.10586589451694
227  -5.71204697986953 -2.16976642488596
228  -5.90982044945305 -2.23566475347141
229  -6.11444133654736 -2.30320095195759
230  -6.32700187083757 -2.37181001927338
231  -6.54863894015549 -2.44065798479906
232  -6.78054776590713 -2.50856825059398
233   -7.0240064806777 -2.57393291580355
234  -7.28040026786988 -2.63459688865295
235  -7.55121305880778  -2.6876945983346
236  -7.83792597505258 -2.72941795444956
237  -8.14173478597378 -2.75471329041656
238  -8.46298510866305 -2.75695792869947
239  -8.80022576799238  -2.7277650233251
240  -9.14882529142041 -2.65722437994777
241  -9.49932841304618 -2.53508192921215
242  -9.83644174087941 -2.35327640239833
243   -10.140772869582 -2.10871883495474
244  -10.3950850774788 -1.80033890479246
245  -10.5740707076024 -1.44670004644595
246  -10.6636927297978 -0.598779301396184
247   -10.578436344707 0.0538445007143194
248  -10.4311563754774 0.719731071813748
249   -10.149394314784  1.34188806471575
250  -9.73903114673576  1.83022062228906
251  -9.29215714837522  2.14746579002792
252  -8.40904979122868  2.44775789233296
253  -7.48091365690947  2.51679825459382
254  -6.55414290425653  2.47752660716117
255  -5.63190269771063  2.42338057622908
256  -4.71008777697971  2.41169969452598
257  -3.78753816410665  2.46249910635399
258  -2.86301348359388  2.55378038578111
259  -1.93839547408441  2.64364289045703
260  -1.01490157678303  2.70676515755439
