// Id               X                Y
  1  -0.0925180725862999 -0.0613060889874514
  2   0.90232922786398 -0.0883998082809189
  3   1.80960214568399 0.0675152705062882
  4    2.6580952022721 0.398645980574566
  5   3.44984137307964 0.826116174937181
  6   4.20838626555312  1.28877315920245
  7   4.96429812929993  1.73550792958186
  8    5.7497116278541  2.10814587825352
  9   6.58200682565044  2.34138412105485
 10   7.44385813726764  2.35800709314598
 11   8.27913161788535  2.10823921067068
 12   8.66121557014714   1.8191168780364
 13   8.94860461509233  1.39053363205101
 14   8.99476070864712 0.819351305961937
 15   8.63837898618341 0.395181582136727
 16   7.88321643661334 0.727325853784227
 17    7.3123341600855 0.917951663711181
 18   7.02601016005046 0.895943150629558
 19   6.80693454782373  0.82554288970511
 20   6.62094204173978 0.728436877148248
 21   6.46383487337333 0.621698983894817
 22   6.32711099499059 0.514857052617016
 23   6.20563065531346 0.414290225478684
 24   6.08595889436099 0.314923691048791
 25   5.96328519597239 0.216927910854835
 26   5.83717563533931  0.12316018556086
 27   5.70672944230234 0.0350703549350271
 28   5.57175363739747 -0.0462559377078582
 29   5.43263346327189 -0.120119434529575
 30   5.29005794952042 -0.186252959233779
 31   5.14478887707235 -0.244770332580506
 32   4.99751388159181 -0.296053104662606
 33   4.84878002034853 -0.340626391815591
 34   4.69898507265504 -0.379057678082343
 35   4.54840259062149 -0.411890705187913
 36   4.39722525717033 -0.439612061082123
 37   4.24562196472546 -0.462642139350544
 38   4.09379947452261 -0.481343515481248
 39   3.94194115767854 -0.496050042544606
 40   3.79000217037704 -0.507091979009976
 41   3.63790620405517 -0.514775113754984
 42    3.4856861106346 -0.519385156182238
 43   3.33343521792344 -0.521203914349391
 44   3.18126814772235 -0.520515048127145
 45   3.02930279590966 -0.517603722400767
 46    2.8776521358326 -0.512753951604803
 47   2.72642050635597 -0.506245439860397
 48   2.57570212541256 -0.498350754264331
 49   2.42558073285899 -0.489333148083794
 50   2.27612979076168 -0.479445055044269
 51    2.1274129651815 -0.468927128587308
 52   1.97948478868133 -0.45800765063195
 53   1.83239148434872 -0.446902140379201
 54    1.6861719182976  -0.4358130218151
 55   1.54085852564932  -0.4249292384358
 56   1.39647782782507 -0.414425729864412
 57   1.25304989551456 -0.404462717690626
 58   1.11058600554523 -0.395184808571716
 59  0.969084066850028 -0.38672002470138
 60  0.828522259339313 -0.379178988067228
 61  0.688852371682291 -0.372654538923298
 62  0.549994824562042 -0.36722199090375
 63  0.411836920004321 -0.362940032598446
 64  0.274234804631563 -0.359852081665208
 65  0.137018676094344 -0.357987780676506
 66  3.05790636400258e-07 -0.357364317117731
 67  -0.137018058356887 -0.357987317356247
 68  -0.274234169415074 -0.359851161602131
 69  -0.411836258918183 -0.362938669084292
 70  -0.549994133968021 -0.367220204193935
 71  -0.688851654268602 -0.372652356549454
 72  -0.828521525288451 -0.379176445143208
 73  -0.969083334443784 -0.386717164140592
 74   -1.1105853011353 -0.395181681141781
 75   -1.2530492529531 -0.404459381860862
 76  -1.39647728761206 -0.414422251444923
 77  -1.54085813410342 -0.424925690038392
 78  -1.68617172696259 -0.435809482173155
 79  -1.83239154968819 -0.446898693540238
 80  -1.97948517199045 -0.458004385007008
 81  -2.12741373259977 -0.468924135816751
 82  -2.27613101327023 -0.479442428629759
 83  -2.42558248615935 -0.489330981747594
 84  -2.57570448958531 -0.498349140027182
 85  -2.72642356516842 -0.506244465885293
 86   -2.8776559755427 -0.512753699924983
 87  -3.02930750336543 -0.517604266729557
 88  -3.18127380757997 -0.52051645201201
 89  -3.33344190886523 -0.521206229948225
 90  -3.48569390066831  -0.5193884238776
 91  -3.63791514528979 -0.514779362642942
 92  -3.79001229428463 -0.507097228001633
 93  -3.94195247568371 -0.496056301147625
 94   -4.0938120114271 -0.481350779674816
 95  -4.24563580379445 -0.462650377432506
 96  -4.39724042389039 -0.439621213417088
 97   -4.5484189764902 -0.411900690506044
 98  -4.69900242798713 -0.379068396906717
 99  -4.84879800482394 -0.340637721965838
100  -4.99753220156302 -0.296064872757763
101  -5.14480745535644 -0.244782260267299
102  -5.29007690430101 -0.186264662292626
103  -5.43265278079963 -0.120130589318092
104  -5.57177273205246 -0.0462666359350549
105  -5.70674708799527 0.0350592973555053
106  -5.83719048922199 0.123147295705321
107  -5.96329632757337 0.216911367552841
108  -6.08596584500905 0.314901522400233
109  -6.20563143595519  0.41425894375695
110  -6.32710516437289 0.514814574103497
111  -6.46381701135147  0.62163959358106
112  -6.62090485479527 0.728356852713417
113  -6.80686640273026 0.825442801799234
114  -7.02592222613961 0.895839345494965
115  -7.31223737091934 0.917856757008037
116  -7.88313285386604 0.727257283188965
117  -8.63831516528772 0.395152129075552
118   -8.9946695191255 0.819333227177292
119  -8.94850233650593  1.39048850380891
120  -8.66111607741307  1.81906266310541
121  -8.27903665883708  2.10818511108721
122  -7.44377350792609  2.35797686047227
123  -6.58192327135623  2.34142141620974
124  -5.74960572445255  2.10827409055168
125  -4.96415432348143  1.73572114156467
126   -4.2080612967435  1.28934330301399
127  -3.44919059516826 0.827617144827711
128  -2.66019023274188 0.399200980197925
129  -1.82992099336566 0.0578918208756899
130  -0.967271752309364 -0.112749681776137
131  0.0210190625073581 0.489182650869928
132  0.881105627722273 0.516292264705279
133   1.73204184569534 0.684172963878485
134   2.54981317203843  1.00977072735605
135   3.33283915158502  1.43565058259429
136   4.10559135025563  1.90142092985826
137   4.90383174322265  2.35337378169098
138   5.76756306385683   2.7253287146063
139   6.77098164050798  2.92917268896818
140    7.7774582421985  2.84425224531546
141   8.55237569300031  2.52310860000063
142   9.16279730372301  1.98199613980009
143    9.4762942040217  1.26097172466348
144   9.44012508017479 0.492672102140036
145   9.20913333256086 -0.237136874168706
146   9.02006075833747 -1.05273314283302
147   9.02005664078292 -1.05274215068639
148   8.95906597971748 -1.17534541342548
149   8.87016706141191 -1.32501842830703
150   8.76530586368024 -1.47265122856408
151   8.64492357648235 -1.61649433337277
152   8.50914361610089 -1.75611449508905
153    8.3569430019356  -1.8924334062178
154   8.19936499467379 -2.01717274824232
155   8.04051205722371 -2.13010095081999
156   7.87929943167335 -2.23427807303955
157    7.7155441763112 -2.33125281766359
158   7.54912380641438 -2.42204484267088
159   7.37996174794351 -2.50732296973946
160   7.20802946767338 -2.58751594495449
161   7.03333097147864 -2.66289923523833
162   6.85588731625602   -2.733658291975
163   6.67572656702478  -2.7999320206383
164   6.49287754455549 -2.86184112493493
165   6.30736345191096 -2.91950550059664
166   6.11919119713271  -2.9730541374042
167     5.928334704515 -3.02262974405521
168   5.73472843700743 -3.06838602930663
169   5.53839903723097 -3.11045545007132
170   5.33971115414943 -3.14891261400453
171   5.13913817458869 -3.18384234452943
172    4.9370594591809 -3.21537435333135
173   4.73377267346704 -3.24366914834252
174   4.52952221300952 -3.26890573016684
175   4.32451557786881  -3.2912746086061
176   4.11893209999763 -3.31097352333264
177   3.91292783688635 -3.32820431346737
178   3.70663854744903  -3.3431702498966
179    3.5001816101736 -3.35607358226291
180   3.29365724528354 -3.36711324485277
181    3.0871491659723 -3.37648273596532
182   2.88072467545186 -3.38436819949843
183   2.67443420150278 -3.39094673201414
184   2.46831032801388 -3.39638492995115
185   2.26236657331821  -3.4008376872332
186   2.05659648932616 -3.40444725305206
187   1.85097403012764 -3.40734256172101
188   1.64545630524153 -3.40963884608163
189   1.43998942742802 -3.41143753706269
190   1.23451704602088 -3.41282643059357
191   1.02898980247883 -3.41388007068198
192  0.823373276697353 -3.41466026801405
193  0.617652538508996 -3.41521666400519
194  0.411832747856786 -3.41558726228106
195   0.20593643991582 -3.41579887531567
196  -1.36206956097183e-06 -3.41586745664974
197  -0.205939169615889 -3.41579830444622
198   -0.4118354937474  -3.4155861299534
199  -0.617655309757578 -3.41521498901459
200  -0.823376080109722 -3.41465807848642
201   -1.0289926417876 -3.41387740399508
202  -1.23451992155075 -3.41282333327501
203  -1.43999233634334 -3.41143406466409
204  -1.64545924248412 -3.40963506302391
205  -1.85097698994205  -3.4073385410943
206  -2.05659946705712 -3.40444307634935
207  -2.26236956709379 -3.40083344399681
208  -2.46831334004044 -3.39638071732119
209  -2.67443723890123 -3.39094265417597
210  -2.88072775071038 -3.38436436702848
211  -3.08715229714686 -3.37647926505947
212  -3.29366045604747  -3.3671102563894
213  -3.50018492976808 -3.35607120061593
214  -3.70664201053139 -3.34316860138052
215  -3.91293148323604 -3.32820352429076
216  -4.11893597401754 -3.31097371696094
217  -4.32451972782836 -3.29127590250466
218  -4.52952669005191 -3.26890823200338
219  -4.73377753068837 -3.24367295181746
220  -4.93706475178138 -3.21537953379767
221  -5.13914396364996 -3.18384895428057
222  -5.33971751855351 -3.14892067638199
223  -5.53840609700474 -3.11046495098491
224  -5.73473636927826 -3.06839690907963
225  -5.92834377295491 -3.02264188667098
226  -6.11920191776649  -2.9730673211322
227  -6.30737657023762 -2.91951938022817
228   -6.4928936787871 -2.86185532012594
229  -6.67574554843314 -2.79994635838615
230  -6.85590744650244 -2.73367318287184
231  -7.03334875556096  -2.6629159853984
232   -7.2080405554595 -2.58753660308094
233  -7.37996311141901 -2.50734945455556
234  -7.54911590272657  -2.4220776970541
235  -7.71553120353683 -2.33129056128079
236  -7.87928704749019 -2.23431790449027
237  -8.04050423316019  -2.1301403915981
238  -8.19936189860229 -2.01721133905845
239   -8.3569423134876 -1.89247252039844
240  -8.50913866464869 -1.75615999048607
241  -8.64491537341596 -1.61654601969917
242  -8.76530314077933 -1.47269869561764
243  -8.87018307713697 -1.32503826447454
244  -8.95909082963763 -1.17534286969165
245   -9.0200808859672 -1.05273017108379
246  -9.02008483759184 -1.05272152534132
247  -9.20911438955298 -0.237129717378726
248  -9.44007058468577 0.492680889423205
249  -9.47620923769828  1.26097244979654
250  -9.16269264772316  1.98197704101843
251  -8.55227258649177  2.52307270885628
252   -7.7773736885946  2.84422287390106
253   -6.7709538457962  2.92919034085102
254  -5.76767358806568  2.72544633566152
255  -4.90395359020511  2.35362312684294
256  -4.10546246936845  1.90211121459678
257   -3.3321823033495  1.43706301277812
258  -2.54907972103774  1.00890537176669
259  -1.72909633823913 0.672525448860862
260  -0.865166361751613 0.497803034381284
