// Id               X                Y
  1  -0.102661125503965  3.78006029586629
  2  0.824197657827644  3.74239918273118
  3   1.75665414037499  3.62096302136901
  4   2.69849903776506  3.41344346934786
  5    3.6186992301459  3.13595780671274
  6   4.48160645649214  2.82510005193415
  7   5.35709557986003  2.55197116274982
  8   6.24416286006832  2.32202143506124
  9   7.13373370815058  2.11691509104445
 10   8.01465295282273  1.89929857814361
 11   8.87494941430869  1.60954389428576
 12   9.31984302003314  1.35846317090768
 13    9.7110812016738  1.00013094647386
 14   9.96655838052118 0.424628388696033
 15   9.82663800226235 -0.113525132299221
 16   9.10968649836455 -0.351964669477804
 17   8.60040997618288 -0.241684421435795
 18   8.50092063400643 -0.20606612069113
 19   8.44190489359529 -0.182727830457192
 20   8.38461208205234 -0.158526844656791
 21   8.32702691348478 -0.132663847950596
 22   8.26262025628825 -0.101965736907242
 23   8.18658650481297 -0.0633420115708087
 24    8.0972354442342 -0.0147596412996302
 25   7.99501059466453 0.0448816139423095
 26   7.88139274513303 0.115950482853788
 27   7.75818882420025 0.198236750039794
 28   7.62717680074727 0.291034440919827
 29   7.49000396220639 0.393173108567722
 30   7.34815829048203 0.503079160345862
 31   7.20280220024418 0.619015761337265
 32   7.05454780757166  0.73942575977125
 33   6.90349181574459 0.863059888920381
 34   6.74942285638444 0.988908128510622
 35   6.59197527715185  1.11612636908129
 36   6.43071118686831  1.24399565724665
 37   6.26517208361753  1.37189275677195
 38   6.09491997074006  1.49926296074733
 39   5.91957427322111  1.62559503450627
 40   5.73884511142695  1.75040094158453
 41   5.55256027097237  1.87320333340968
 42   5.36068212199589  1.99353236515189
 43   5.16331185890246  2.11093096968165
 44    4.9606809187102  2.22496554218288
 45   4.75313196165756  2.33523806851644
 46   4.54109335910608  2.44139623658523
 47   4.32505144246267  2.54313945602812
 48   4.10552410171543  2.64022023965146
 49   3.88303817866748  2.73244155338863
 50   3.65811190843419  2.81965134675749
 51   3.43124266330413  2.90173561402406
 52   3.20289949614363  2.97861119294893
 53   2.97351939329394  3.05021925497041
 54   2.74350562511565   3.1165201764153
 55   2.51322610015688  3.17749021425263
 56   2.28300936514477  3.23312007770305
 57   2.05313631620512  3.28341500476552
 58   1.82382741450233  3.32839533023199
 59   1.59522837037958  3.36809601920901
 60   1.36740055208344  3.40256373928395
 61   1.14032293311868   3.4318511261757
 62  0.913908208100496  3.45600956025502
 63  0.688028778395429  3.47508282282372
 64  0.462543693812574  3.48910356302375
 65  0.237318323097061  3.49809297965893
 66  0.0122328890308825  3.50206267304932
 67  -0.212819400716134  3.50101701176455
 68  -0.437940978025546   3.4949545818154
 69  -0.663240372349745  3.48386798638086
 70  -0.888839300078213  3.46774213775043
 71  -1.11487169294708  3.44655203095956
 72  -1.34147175843149  3.42026157487084
 73  -1.56875180149578  3.38882502092345
 74  -1.79677539318914  3.35219158461651
 75  -2.02553482820684  3.31031226517234
 76   -2.2549404883304  3.26314664577559
 77   -2.4848237989047  3.21066759717027
 78  -2.71494921277131  3.15286319827929
 79  -2.94502832944463  3.08973669636936
 80  -3.17473111739586  3.02130601428846
 81  -3.40369259479489  2.94760412426096
 82  -3.63151590913885  2.86868102522483
 83  -3.85777388142459  2.78460749979162
 84  -4.08201115498291  2.69548043356156
 85  -4.30374869987333  2.60142921748591
 86  -4.52249192723917  2.50262254209437
 87   -4.7377431646164  2.39927468750624
 88  -4.94901868573207   2.2916502403717
 89  -5.15586979362525  2.18006612170417
 90   -5.3579065895284  2.06489002532905
 91  -5.55482209750059  1.94653496947247
 92  -5.74641357333887  1.82545067184592
 93  -5.93259743772502  1.70211368369157
 94  -6.11341466784269  1.57701923434416
 95  -6.28902478023734   1.4506780061524
 96  -6.45968843708115  1.32362023733973
 97  -6.62574042859043  1.19640782941119
 98  -6.78755534080746  1.06965330576629
 99  -6.94550685624371 0.944043573330935
100   -7.0999174998268 0.820367694090765
101  -7.25098389168591   0.6995552101781
102  -7.39863766718771 0.582747717216201
103  -7.54234481601371 0.471383688912908
104  -7.68105553093721 0.367113867764407
105  -7.81340833452691 0.271497663503359
106  -7.93789170996077 0.185769441862641
107  -8.05288104457274 0.110760112692879
108  -8.15673062276001 0.0468510490978896
109  -8.24809351608883 -0.00612732559824857
110  -8.32659777833208 -0.049088171296155
111  -8.39393643728199 -0.0839816085321553
112  -8.45499241114089 -0.114017407042485
113  -8.51676897013131 -0.142827329685287
114  -8.58189153559633 -0.171445227809961
115  -8.69787413052925 -0.217909585409366
116  -9.20719963773603 -0.353892429181346
117  -9.94215272799266 -0.164908655252755
118  -10.1228331698792 0.346335874143432
119  -9.92645409780256 0.927280000337107
120  -9.57079931216461  1.31074896624126
121  -9.14899437347033  1.58622884847444
122  -8.30585814619743  1.90513910079293
123  -7.43426538126444  2.12927739528341
124  -6.55083637133358  2.32350791297675
125  -5.66763062958886  2.53247304939005
126  -4.79403090845434  2.78187894846377
127  -3.93422688485896  3.07470220547559
128  -3.07127316748781  3.36188048348832
129  -2.17026315651328  3.57309299312936
130  -1.13667485251553  3.69454539005974
131  -0.124921149919075  4.36549431061781
132  0.860789627029574  4.33372620350994
133   1.82648679120168  4.20698184321968
134   2.77159333814378  3.99692866978085
135   3.70230514771777   3.7234440641127
136   4.62104407063913  3.42450968280265
137    5.5321976918396  3.14565701384469
138   6.45357880284853  2.90465735336728
139   7.39627144715465  2.67706389227251
140   8.40047265868971  2.37727543441279
141   9.34644890342863  1.88981976480403
142    9.8449323143568  1.44135413322375
143   10.2270649998345 0.899622528277059
144   10.4574540870974 0.389286055131701
145   10.6057837876629 -0.0996590068063674
146   10.7546087739592 -0.747425946763841
147   10.7467966176341 -1.82085785704096
148   10.5472370165033 -2.22513815175323
149    10.273605607294 -2.54290194498824
150   9.95294810995093 -2.77943464661629
151   9.60228956379845 -2.94278972287105
152   9.23897277292052 -3.03926798497739
153   8.87841822464497 -3.07767571782493
154   8.53085002276961 -3.06884594396642
155   8.20133917165916  -3.0233959854791
156    7.8914162702757 -2.95039524408821
157   7.60062551485554 -2.85706993351633
158   7.32751559837303 -2.74898895068511
159   7.07012663367956 -2.63033667011518
160   6.82624312428319 -2.50416395154766
161   6.59370832705453 -2.37270845644028
162   6.37075973593493 -2.23777547540431
163   6.15607079900622 -2.10095099232972
164   5.94859633714293 -1.96363166477517
165   5.74746119601587 -1.82702140654046
166   5.55191316731942  -1.6921407536998
167   5.36129863042964 -1.55983975355154
168   5.17504173414855 -1.43080824888236
169     4.992621917276  -1.3055831833044
170   4.81355005506926 -1.18455514636709
171   4.63734624708512 -1.06797742187399
172   4.46352298616512 -0.955980249716944
173   4.29157634474111 -0.848591143283339
174   4.12098573385363 -0.745759932795135
175   3.95122084138172 -0.647385759353144
176   3.78175323604972 -0.553342935931207
177   3.61206991756336 -0.463503192641785
178   3.44168650465045 -0.377752838600353
179   3.27015841795996 -0.29600437763781
180    3.0970890853265 -0.218202890208189
181   2.92213477850853 -0.14432799554937
182   2.74500620303727 -0.0743924844336195
183   2.56546747892424 -0.00843882861802664
184   2.38333372927581 0.0534652356509547
185   2.19846909996223 0.111231000491826
186   2.01078742679253 0.164752254183724
187    1.8202574327443 0.213907830504711
188   1.62691264273052 0.258563951798857
189   1.43086303400918 0.298577742562007
190   1.23230217400898 0.333803212196549
191   1.03150312054628 0.364099788053761
192  0.828800634077402 0.389341658739194
193  0.624564191811012 0.409425173302614
194  0.419170815992357 0.424272279583754
195  0.212985910750394  0.43382989078141
196  0.00635584180139096 0.438066741426134
197  -0.200388646221694  0.43696989865808
198  -0.406922009202167 0.430542720094361
199  -0.612911587094644 0.418805153498155
200  -0.818008778850784 0.401796205122454
201  -1.02184858628063 0.379577361396375
202  -1.22406061571315 0.352234978507722
203  -1.42429096871817 0.319879583211763
204  -1.62222953568247  0.28264104839761
205  -1.81763373880999 0.240660487278974
206  -2.01034097573544 0.194081296907401
207  -2.20026789097219 0.143041840192547
208  -2.38740090206226 0.0876708068014224
209  -2.57178482462873 0.0280846139662742
210  -2.75351463587627 -0.0356145610329997
211  -2.93273203423152 -0.103341268149065
212  -3.10962586858379 -0.175030201183975
213  -3.28443442645999 -0.250640237263546
214  -3.45744758673425 -0.33015831602195
215  -3.62900734713596 -0.41360213582606
216  -3.79950582868302 -0.501020572001203
217   -3.9693803857763 -0.592490766377896
218  -4.13910591156033 -0.68811099293382
219  -4.30918487935535 -0.787988702229376
220  -4.48013615073356 -0.892223631643002
221  -4.65248410419192 -1.00088655560688
222  -4.82675010170997 -1.11399507418067
223  -5.00344852021623 -1.23148860020581
224  -5.18308928708504 -1.35320507558194
225  -5.36618791957514 -1.47886158503094
226  -5.55328261654198 -1.60803982989752
227  -5.74495654145939 -1.74017571958682
228  -5.94186290096663 -1.87455088875844
229  -6.14475154112025 -2.01028351900755
230  -6.35449962255869 -2.14631703343218
231  -6.57216077395264 -2.28141018545622
232  -6.79907291360968 -2.41413967461321
233  -7.03702018967441 -2.54288144651782
234  -7.28822311411166 -2.66561867553927
235   -7.5550377176592  -2.7795637937474
236  -7.83965473122869 -2.88081596201589
237  -8.14384650204699 -2.96407966362855
238  -8.46850374662728 -3.02236321652401
239  -8.81269809301812 -3.04674160886963
240   -9.1721622526234  -3.0265431490544
241    -9.537595889751 -2.95053742506867
242  -9.89435204244654 -2.80918676799896
243  -10.2256144260642 -2.59553842936467
244  -10.5156108122586 -2.30097805216084
245  -10.7372743241404 -1.92303952291019
246  -10.8232380343366 -0.856443802050884
247  -10.7239499686262 -0.20047011598003
248   -10.614849926441 0.298695125083842
249  -10.4305738648603 0.811510227230722
250  -10.0913314121844  1.37635052335758
251  -9.62095860648883  1.85365167251451
252  -8.69631690582154  2.37765140637757
253   -7.6949383661072  2.69008743152003
254  -6.74887724938743  2.90998768536887
255  -5.82278948272432  3.13178182028292
256  -4.90596209428996  3.38901255862243
257  -3.97916544387094   3.6743528470946
258   -3.0129259727296  3.94883003480994
259  -2.04097042944672  4.16297263573674
260  -1.08723211887062  4.30199424849103
