// Id               X                Y
  1  -0.0700923575747024 -0.0749724856228839
  2  0.882187561882391 -0.0681306049068594
  3   1.79390942489473 0.109488972587771
  4   2.65112428425451 0.418870130382872
  5   3.45362158554276 0.822066632732136
  6   4.21678392220167  1.27381913316745
  7   4.97245039428617  1.71923150547941
  8   5.75682170955556  2.09459193535564
  9   6.58978601423334  2.33097944707381
 10   7.45255794407291  2.34567068284513
 11   8.28969118673175  2.10211092543247
 12   8.68043035850627  1.82246843954554
 13   8.97963334688743  1.40344717505951
 14   9.03624582212229 0.878610988957026
 15   8.75737422694551 0.478238969979048
 16   8.03743361352149 0.492307276035473
 17   6.91992541330778  0.90728734172527
 18   6.91992072023481 0.907285782738803
 19   6.75442711682978 0.832783576176973
 20   6.60148329166733 0.732348066649792
 21   6.46313468666297 0.619607822962401
 22    6.3385170676426 0.507885064873379
 23   6.22440388893219 0.404435406197408
 24   6.10843583258458 0.303372558189336
 25    5.9863996992641  0.20456221981951
 26   5.85882963770815 0.110789407663735
 27   5.72608778041659 0.0234944042296224
 28   5.58883859397611 -0.0564983538452055
 29   5.44787696287982 -0.128849413243576
 30   5.30399292762928 -0.193582133256726
 31   5.15788771557721 -0.250967263216643
 32   5.01012565575885 -0.301425361769587
 33   4.86112592693713 -0.345446407819781
 34   4.71118125915166 -0.383531463496751
 35   4.56049144383171 -0.416156490564065
 36    4.4092026181592 -0.443755117798957
 37   4.25744961861517 -0.466715395973746
 38    4.1053939251469 -0.485386938175489
 39   3.95318192685751 -0.500099955147334
 40   3.80082323086874 -0.511180141042191
 41   3.64831224426402 -0.51893554948343
 42   3.49571264111083 -0.523658923994455
 43   3.34312577532679 -0.525637378951163
 44   3.19066331700271 -0.525155940967632
 45   3.03843440436229 -0.522497352868278
 46   2.88654062900503 -0.517940435339278
 47    2.7350745163098 -0.511758053329867
 48   2.58411937888421 -0.504215136802203
 49   2.43374961158909 -0.495566959233714
 50   2.28403105712183 -0.486057768362277
 51   2.13502133432285 -0.47591980230273
 52   1.98677016460146 -0.465372681415916
 53   1.83931981502259 -0.454623133368595
 54   1.69270579177166 -0.443864979984839
 55   1.54695782015039 -0.433279283626164
 56   1.40210088587475 -0.423034515399183
 57   1.25815569696747 -0.413286577557725
 58   1.11513753272836 -0.404178518280398
 59  0.973052455862914 -0.395839858152759
 60   0.83189062906417 -0.388385611611319
 61  0.691617862017049 -0.381915265438153
 62   0.55216772889769 -0.376512051107366
 63  0.413436786048877 -0.372242750103447
 64  0.275284470860823 -0.369158054972227
 65  0.137537851888578 -0.367293300821589
 66  3.09269345390856e-07 -0.366669276942282
 67  -0.137537226443212 -0.367292840137087
 68  -0.275283825972827 -0.36915714102875
 69  -0.413436112927672 -0.372241397861855
 70  -0.552167024689142 -0.376510283249103
 71  -0.691617131495406 -0.381913112561669
 72  -0.83188988561157 -0.38838311235724
 73  -0.973051721621595 -0.395837059178637
 74  -1.11513683800423 -0.404175474035623
 75  -1.25815507917375 -0.413283349855558
 76  -1.40210038841155 -0.423031172823773
 77  -1.54695749154401 -0.433275900825383
 78   -1.6927056851992 -0.443861636882492
 79  -1.83931998815915 -0.454619914298824
 80  -1.98677067963591 -0.46536967416146
 81    -2.135022257988 -0.475917097012426
 82  -2.28403246062909 -0.486055456331484
 83  -2.43375157039219 -0.495565131543819
 84  -2.58412197221295 -0.504213882827258
 85  -2.73507782640096 -0.511757459125727
 86  -2.88654473992871 -0.517940581934001
 87  -3.03843940027774 -0.522498314474011
 88  -3.19066927961684 -0.525157783142584
 89  -3.34313278030392 -0.525640156762611
 90  -3.49572075321988 -0.52366268027618
 91  -3.64832151117521 -0.518940313350948
 92  -3.80083367614743 -0.51118592689486
 93   -3.9531935464876 -0.500106762129423
 94  -4.10540670732043 -0.485394747652412
 95  -4.25746358077855 -0.466724163305575
 96  -4.40921776046815 -0.443764771067765
 97  -4.56050772614346 -0.416166931505943
 98  -4.71119860303658 -0.383542566793121
 99  -4.86114420970182 -0.345458023431001
100  -5.01014469707478 -0.301437323928675
101  -5.15790725633382  -0.2509794113449
102  -5.30401260510708 -0.193594349816941
103  -5.44789628950983 -0.128861681854848
104   -5.5888569716001 -0.0565108249164685
105   -5.7261044985016 0.0234813187781188
106  -5.85884396353254 0.110774978739389
107  -5.98641087353579  0.20454528960062
108  -6.10844307954492 0.303351446498747
109  -6.22440476775586 0.404406416643856
110  -6.33850955470855 0.507844343737256
111  -6.46311263391254 0.619547663305501
112  -6.60143863967654 0.732262523987609
113  -6.75435595586913 0.832677177676537
114  -6.91982872219639 0.907172090733296
115  -6.91983317012357 0.907173568407221
116  -8.03735948041419 0.492236660659107
117  -8.75729709832842 0.478205461933348
118  -9.03614212176554 0.878588228008479
119   -8.9795032919293  1.40339560281922
120  -8.68030198710856  1.82238374128445
121  -8.28959512630827   2.1020147999445
122  -7.45255201221962  2.34569664492118
123  -6.58988837997391  2.33146181594538
124  -5.75709813024098  2.09563757477932
125  -4.97355961690316   1.7205113813498
126  -4.22064221154124  1.27471292885834
127  -3.46377828359148 0.822214465497607
128   -2.6731074144641 0.418917099383314
129  -1.83660028682209 0.111191301547026
130  -0.96147281933694 -0.0628086359564182
131  0.015407435601989 0.490432475331856
132  0.880045916300215 0.549202133755692
133   1.72791047836063 0.730947200897345
134   2.54729808193454  1.03459371972076
135   3.33645045058936  1.43451719858412
136   4.11309731350514  1.88757938379561
137   4.91184999957321  2.33735720114621
138   5.77406982215712  2.71217913309164
139   6.77919070061996  2.92075648373569
140   7.84159256963611  2.79521114443926
141    8.7625725209397  2.23845499098059
142   9.17384867787053  1.68337665901596
143   9.39477550463304  1.06559096945965
144   9.45111269126233 0.540511892817396
145   9.41419651422201 0.0457510736870881
146   9.23736978705877  -0.6251423743903
147   9.05497869053554 -1.00345414054826
148   8.89563375501806  -1.2463410887106
149   8.82226526336156 -1.34279633387583
150    8.7301386215303 -1.45377168359817
151   8.61394176244938 -1.58097386152458
152   8.47595226978839 -1.71759172752894
153   8.32230885450339 -1.85521212773629
154   8.16608791192573 -1.98244596317476
155    8.0105672387016 -2.09836723959405
156   7.85373126919424 -2.20578832578732
157   7.69440471871113 -2.30622177727005
158   7.53186676483222 -2.40053186312321
159   7.36577958709664 -2.48917941852416
160   7.19606506034801 -2.57241219448059
161   7.02279571689282 -2.65038641898967
162   6.84612336155357 -2.72323150317083
163   6.66622994005591 -2.79108283666688
164   6.48329568523113 -2.85409498515874
165   6.29747971977298 -2.91244372092294
166   6.10891050392049 -2.96632199276474
167   5.91768275526088 -3.01593354488456
168   5.72386340027642 -3.06148522091453
169   5.52756851714197 -3.10316709849299
170   5.32909691598668 -3.14113305442084
171   5.12880862968975 -3.17553740923473
172   4.92702025162046 -3.20655333080553
173   4.72400789219739 -3.23436675364411
174    4.5200149714028 -3.25917127422661
175   4.31525601010422 -3.28116496398161
176   4.10991938037255 -3.30054804998289
177   3.90416972580028 -3.31752106242945
178   3.69815002165707  -3.3322832481704
179   3.49198323303678 -3.34503111504897
180   3.28577357046041  -3.3559570214508
181   3.07960732867959 -3.36524777291079
182   2.87355326212689 -3.37308322345249
183   2.66766244062887 -3.37963490302952
184   2.46196757986742 -3.38506470607196
185   2.25648199662567 -3.38952368335874
186   2.05119863324647 -3.39315098316377
187    1.8460899955771 -3.39607299001673
188   1.64111016268949  -3.3984027099123
189   1.43619989267523  -3.4002394450751
190   1.23129496831269 -3.40166878248801
191   1.02633650004641  -3.4027628852127
192  0.821280747119633 -3.40358103162033
193  0.616105945857867 -3.40417031119184
194   0.41081468164388 -3.40456636969195
195  0.205431769811244 -3.40479410165931
196  -1.36831599755218e-06 -3.40486820616794
197  -0.205434512466732  -3.4047935448703
198  -0.410817441648075 -3.40456526544992
199  -0.616108732434993 -3.40416867815135
200  -0.821283566230723 -3.40357889772424
201  -1.02633935364513 -3.40276028765705
202   -1.2312978542367 -3.40166576769019
203  -1.43620280531518 -3.40023606864894
204  -1.64111309439435 -3.39839903663998
205   -1.8460929385332 -3.39606909379275
206  -2.05120158143227 -3.39314694686846
207  -2.25648494748652  -3.3895195986136
208  -2.46197053553139 -3.38506067282756
209  -2.66766540867364 -3.37963102894608
210  -2.87355625600768 -3.37307962303645
211  -3.07961036793091 -3.36524456637615
212  -3.28577668073476  -3.3559543332825
213  -3.49198644598432 -3.34502907224491
214  -3.69815337460233 -3.33228197816008
215  -3.90417326113887 -3.31752069067311
216   -4.1099231446162 -3.30054869728933
217  -4.31526005251059 -3.28116674360568
218  -4.52001934213474  -3.2591742888548
219  -4.72401263990566 -3.23437109241952
220  -4.92702542029944  -3.2065590666238
221  -5.12881425473604 -3.17554459659329
222  -5.32910301953005  -3.1411417281412
223  -5.52757510061789 -3.10317727407914
224  -5.72387041938665 -3.06149690057882
225  -5.91769008643433 -3.01594673073493
226  -6.10891799576442 -2.96633668394613
227  -6.29748722203004  -2.9124599118966
228  -6.48330304703368 -2.85411267080309
229  -6.66623700655606 -2.79110201912399
230  -6.84612997129593 -2.72325219968733
231  -7.02280170666737 -2.65040866742764
232  -7.19607028163433 -2.57243605242714
233  -7.36578393511028 -2.48920495177642
234  -7.53187019624326 -2.40055913202096
235  -7.69440731317916 -2.30625078842819
236  -7.85373322366893 -2.20581900565182
237  -8.01056895125353 -2.09839933222231
238  -8.16608995782666  -1.9824789594521
239  -8.32231331751263 -1.85524398933155
240   -8.4759596004796 -1.71762109238543
241  -8.61395408454508 -1.58099702737714
242  -8.73015686245367 -1.45378540195348
243  -8.82228646756914 -1.34280211234937
244  -8.89565310026936  -1.2463441961395
245  -9.05499243984771 -1.00344745738457
246  -9.23735908206436 -0.625139770361311
247   -9.4141368879384 0.0457576085815158
248  -9.45100778513011 0.540510634430909
249  -9.39462686120511  1.06555399582186
250  -9.17368855815745  1.68326838979799
251   -8.7624331371603  2.23835619813235
252  -7.84151808540146  2.79531063103152
253  -6.77906549741318  2.92131031051561
254  -5.77365427814689  2.71315372670695
255  -4.91095679190874  2.33822500246771
256  -4.11098110731503  1.88710392355448
257  -3.33183641231256  1.43136863024297
258  -2.53843249299405  1.02865677249401
259  -1.71268602474336 0.723977555765103
260  -0.855824099500268 0.544123297103654
