// Id               X                Y
  1  -0.0699780279633466 -0.0261386699256576
  2   0.88282972060398 -0.0413941046007931
  3   1.81015108163051 -0.00307974132664798
  4   2.70198288017044 0.243350186220064
  5   3.52074381883686 0.663570625517998
  6   4.28465260447781  1.15214793261493
  7   5.04410294515237  1.62399891309644
  8    5.8352298439681  2.02402353808425
  9   6.67106773998951  2.31329621723901
 10   7.55148074320689  2.43162794172977
 11    8.4313729078661   2.2304618039026
 12   8.79255173369884  1.88287762198199
 13   8.94014116813822  1.40417008999063
 14   8.79517338250802 0.929866407822218
 15   8.40833073587516 0.611702886300587
 16   7.88247986950252 0.498645462818886
 17   6.99805878976704 0.571552659679786
 18   6.99804589665675 0.571551776703944
 19   6.84086098155057 0.556545476089569
 20   6.66044711336995 0.527639109647187
 21   6.49202216981156 0.488755904043056
 22   6.34071303336568 0.444023256520706
 23   6.20496145804453 0.396361346480579
 24   6.06981440876845 0.342471575180063
 25   5.93228758726751 0.282039583918212
 26   5.79467486493777 0.217288088469673
 27   5.65743731395118 0.150056639517923
 28   5.52057530670959 0.0820768564858674
 29   5.38376570900129 0.0148522797917544
 30   5.24651516832943 -0.0503723691347144
 31   5.10829836649833  -0.1125869135262
 32   4.96865914993487 -0.170976296073764
 33   4.82727189539599 -0.224888741909343
 34   4.68396857799547 -0.273818633276589
 35   4.53874030368168 -0.317401400725379
 36   4.39172592972286 -0.355413333859543
 37   4.24320050852669 -0.387770520501968
 38   4.09356185754287 -0.414526448090704
 39   3.94320589089975 -0.435880087987225
 40   3.79228980397012 -0.452167760763932
 41   3.64089785029548 -0.463790304527105
 42   3.48918022904343 -0.471180698345102
 43   3.33731615386217 -0.474798572911719
 44   3.18547923361627 -0.47511870309879
 45   3.03382219421554 -0.472616568944169
 46   2.88247237363551 -0.467754960971893
 47   2.73153277380275 -0.460973327085678
 48   2.58108654749714 -0.452680376800032
 49   2.43120209561737 -0.443249738328964
 50   2.28193627130675 -0.433018040641951
 51   2.13333732817187 -0.422284942326222
 52   1.98544874316032 -0.411314674857207
 53   1.83831019486754 -0.400338321479762
 54   1.69195704123984 -0.389556485247488
 55   1.54642332392841 -0.379142398373958
 56   1.40174262700117 -0.369244775849654
 57    1.2579428518477 -0.359990012822454
 58   1.11504758922549 -0.351484568373873
 59  0.973070664489345 -0.343816618477906
 60  0.832003522118396 -0.337057253382484
 61  0.691806797343056 -0.331262080756045
 62   0.55240916674121 -0.326473256447351
 63  0.413688514709296 -0.322721048024957
 64  0.275495542668147 -0.32002682796693
 65  0.137659686700779 -0.318404750281482
 66  -4.90390309829452e-08 -0.317862996267221
 67  -0.137659618038534 -0.318404306573031
 68  -0.275495227125592 -0.320025943988759
 69  -0.413687925318889 -0.322719734136737
 70  -0.552408252207691 -0.326471529553101
 71  -0.691805775584003 -0.331259975235233
 72  -0.832002484121759 -0.337054811160763
 73  -0.973069614081662 -0.343813887493213
 74  -1.11504666649083 -0.351481612885255
 75   -1.2579420705877 -0.359986899440206
 76  -1.40174197111917 -0.369241576255704
 77  -1.54642289722568 -0.379139198123845
 78  -1.69195689002362 -0.389553370589155
 79  -1.83831033404439 -0.400335378296031
 80   -1.9854492623405 -0.411311993915182
 81  -2.13333831085655 -0.422282610254227
 82  -2.28193777026365 -0.433016134605399
 83  -2.43120419370391 -0.443248326900161
 84  -2.58108934494337 -0.452679515080391
 85  -2.73153635546666 -0.460973051034775
 86  -2.88247682041354 -0.467755285502818
 87  -3.03382758720445 -0.472617486317678
 88  -3.18548563419244 -0.475120182099038
 89  -3.33732358966665 -0.474800561488156
 90  -3.48918868923234 -0.471183129985308
 91   -3.6409072831547 -0.463793108194048
 92  -3.79230012440597 -0.452170873600873
 93  -3.94321700914801 -0.435883467501591
 94  -4.09357374010594 -0.414530077035087
 95  -4.24321322770961 -0.387774403982783
 96  -4.39173956094824 -0.355417522129001
 97   -4.5387548872548 -0.317406014225781
 98  -4.68398413214825 -0.273823879075105
 99  -4.82728843060333 -0.224894925167241
100  -4.96867666957188 -0.17098382964925
101  -5.10831687404142 -0.11259631657332
102  -5.24653463568371 -0.0503842699025781
103  -5.38378603727974 0.0148371520660285
104  -5.52059622838001 0.0820576738417591
105  -5.65745831945731 0.150032521782677
106  -5.79469510876042 0.217258182150376
107  -5.93230586177978 0.282003210633408
108  -6.06982906696402 0.342428362486244
109  -6.20496813309262 0.396310534486538
110  -6.34070849622682 0.443965310705227
111  -6.49199937610388 0.488690993102223
112  -6.66040464355828 0.527570770816835
113  -6.84080094575896 0.556478696661339
114  -6.99798596838572 0.571490710766922
115  -6.99799941214185 0.571491631985372
116  -7.88235351926598 0.498653254614072
117  -8.40815044687286 0.611644360117464
118  -8.79506636759774 0.929619048934379
119  -8.94035974410602  1.40370892790271
120  -8.79337827184474   1.8823329458587
121  -8.43305857882468  2.23004944200415
122    -7.554243884923   2.4320320963399
123  -6.67489844567433  2.31496168910883
124  -5.84012331770272  2.02827890861056
125  -5.05030675287844  1.63210649290207
126  -4.29495452890422  1.16312848234186
127  -3.54387237434524 0.670295018408714
128  -2.75079858141549 0.227908639187897
129  -1.88654445077908 -0.0624196588248537
130  -0.977919484303194 -0.12662709411973
131  -0.0096107327623509 0.580978888094706
132  0.880959908332529 0.550349838358362
133   1.77053705172812 0.604840819473506
134   2.62666191425978 0.855372165118299
135   3.41850218568868  1.27556888653286
136   4.18100855049831  1.76498141964389
137   4.97007367568199  2.24043564567277
138   5.82787884685455  2.64256849050491
139   6.85380852930147   2.9011513432166
140   7.94001426706627  2.90075077312455
141   8.91217827986558  2.39209767253272
142   9.33546344812519  1.83589027347595
143    9.4715496522537  1.16499933202319
144   9.29810192718818 0.527860773780375
145   8.84586203548302 0.0591853593416568
146   9.12934470665165 -0.575252899054447
147   9.31297389673702 -0.945373833741891
148   9.12034182662775 -1.27334164018527
149   8.93502886585082 -1.42032414065012
150   8.77650707994048 -1.53096458401506
151   8.62650086448699  -1.6388887514177
152   8.47503209194735 -1.75092657715096
153    8.3157902516201 -1.86640970548836
154   8.15594628124776 -1.97629420740066
155   7.99714374753608 -2.07968174055067
156   7.83774369596029 -2.17928561677701
157   7.67746969247261 -2.27624151497581
158    7.5158733254736 -2.37067952688534
159   7.35232780661929  -2.4620794598151
160   7.18618569925975 -2.54970985688386
161   7.01690771591984 -2.63291830276732
162   6.84412202064056 -2.71124987061037
163   6.66763272471512 -2.78445992453517
164   6.48740056220355 -2.85248172224486
165   6.30350873281619 -2.91538098830152
166   6.11611923702697 -2.97331226039876
167   5.92542256483155 -3.02648312867095
168   5.73159198921025 -3.07512380753645
169   5.53485066357297  -3.1194389286191
170   5.33565465738626  -3.1595675854077
171   5.13450926533946 -3.19565496324399
172   4.93182376802763 -3.22789300270836
173   4.72793399585193 -3.25650862715323
174   4.52312446759633 -3.28174891629195
175   4.31763778413122 -3.30387063364887
176   4.11167983136806  -3.3231337296042
177   3.90542393051226 -3.33979725529901
178   3.69901372265212 -3.35411626253499
179   3.49256573555383 -3.36633881657159
180   3.28617299665389 -3.37670303485669
181   3.07990765645524 -3.38543463066323
182    2.8738213257387   -3.392745119986
183   2.66794672052396 -3.39883043541617
184   2.46229959191111 -3.40387001510952
185   2.25687634811169 -3.40802633285618
186   2.05165313795342 -3.41144430777596
187   1.84659066505054 -3.41425051283245
188   1.64163265719098 -3.41655259180591
189   1.43671141531432  -3.4184386648829
190   1.23176118240111 -3.41997736043653
191   1.02672831199179 -3.42121922250761
192  0.821575018211928 -3.42219945904394
193  0.616301310276635 -3.42294151343274
194  0.410924795917676 -3.42346103623176
195  0.205477753579242 -3.42376844081932
196  -1.14924616494415e-06  -3.4238700165045
197  -0.205480202583169 -3.42376793017278
198  -0.410927446302164 -3.42346000591075
199  -0.616304168942004 -3.42293995500771
200  -0.821578129818807 -3.42219737465033
201  -1.02673146848651 -3.42121663622374
202  -1.23176431749476 -3.41997431700454
203  -1.43671456118408 -3.41843522438542
204  -1.64163571940571 -3.41654882862438
205   -1.8465936795972 -3.41424650716115
206  -2.05165617361891 -3.41144014401052
207  -2.25687935995625 -3.40802210475543
208  -2.46230259705796 -3.40386582169958
209  -2.66794977381121 -3.39882638009553
210  -2.87382441882312 -3.39274131508438
211  -3.07991079792967 -3.38543119370781
212  -3.28617623547958 -3.37670008412137
213  -3.49256910168511 -3.36633647263904
214  -3.69901723727427 -3.35411464674242
215  -3.90542763299063 -3.33979648483399
216  -4.11168376238499 -3.32313391541358
217  -4.31764197437005 -3.30387187848872
218  -4.52312894759332 -3.28175130966377
219  -4.72793879945803  -3.2565122398375
220  -4.93182892799917 -3.22789788309598
221  -5.13451480929759 -3.19566113620801
222  -5.33566059877947 -3.15957505624276
223  -5.53485697786373 -3.11944769551621
224  -5.73159856350385 -3.07513388511246
225  -5.92542915908861 -3.02649457118682
226   -6.1161255917469 -2.97332514074039
227  -6.30351462157366 -2.91539538283476
228  -6.48740580302367 -2.85249771598811
229  -6.66763719403406 -2.78447762930169
230  -6.84412567494294 -2.71126944836698
231  -7.01691058911554 -2.63293999781838
232  -7.18618790941034 -2.54973401082242
233   -7.3523295368347 -2.46210651032857
234  -7.51587483096703 -2.37070994353792
235   -7.6774712647324 -2.27627568606903
236  -7.83774565110595 -2.17932364231293
237  -7.99714638912682 -2.07972319087187
238  -8.15594995959601 -1.97633782390011
239  -8.31579718565441 -1.86645185676324
240  -8.47504299750195 -1.75096331588333
241  -8.62651930751261 -1.63891354978596
242  -8.77653263946664 -1.53097460543625
243  -8.93505878333704 -1.42031834528929
244   -9.1203626102353 -1.27332487274531
245  -9.31297498386857 -0.945348564449859
246  -9.12931741154233 -0.575236176405981
247  -8.84578092804758 0.0591862625333854
248  -9.29806996758674 0.527811559639764
249  -9.47158388400762   1.1649444426954
250   -9.3358551701105  1.83592325112696
251  -8.91246551509056  2.39213798483788
252  -7.94088814982808  2.90193983360068
253  -6.85456380046065  2.90343253675222
254  -5.82750979198628  2.64639874602999
255  -4.96649886109325  2.24685118915052
256  -4.17403066059148   1.7724102346455
257  -3.41164461126707   1.2766649027851
258  -2.62796343961852 0.833639204114063
259  -1.78109377561193 0.542247986972707
260  -0.89069553565477 0.455322400516169
