// Id               X                Y
  1  -0.089381871395968   2.4305513373346
  2  0.971579015218149  2.42172411460677
  3   2.04130753825501  2.38380804187733
  4   3.09083777129933  2.29921136655584
  5   4.04939142612993  2.12962608332603
  6   4.99821641373547  1.98689684300274
  7   5.95485275930555  1.99376415562248
  8   6.90806406043452  2.15000726637865
  9   7.85158939030078  2.33452582128665
 10   8.79762624905524  2.32884407868217
 11   9.60801092168802  1.84996256309072
 12    9.7798676081947  1.35134349735944
 13   9.65997778803404 0.840668994242379
 14   9.28722971011555 0.468488267629176
 15   8.78376783976892 0.312887639814343
 16    8.1478711443606 0.385492433062513
 17   7.38567737185615 0.672797514813645
 18   7.19998282051812 0.747962184911571
 19   7.09770073644941 0.789775910224997
 20    7.0271115244631 0.818746716419061
 21   6.96383022839806  0.84475689612859
 22   6.89764949812288 0.872014958528353
 23    6.8247412318327 0.902055405291473
 24   6.74380306404818 0.935419220792969
 25   6.65457716861917 0.972164848138913
 26   6.55725934803326   1.0121523496152
 27   6.45223377121446  1.05512589929581
 28   6.33996579162861  1.10076186141921
 29   6.22094886093259  1.14868810967606
 30    6.0956764631344  1.19849830746829
 31   5.96462585505944  1.24976329405591
 32   5.82824892562472  1.30204165528452
 33   5.68696779855568  1.35488966192586
 34    5.5411738138738  1.40787046798108
 35   5.39122889265502  1.46056235308674
 36   5.23746847833762  1.51256584424699
 37   5.08020538055191  1.56350964088699
 38   4.91973396553099  1.61305535270517
 39   4.75633424757031  1.66090112114164
 40   4.59027553791238  1.70678422670092
 41   4.42181940022846    1.750482788698
 42   4.25122174677051  1.79181664887802
 43   4.07873398849976  1.83064750537609
 44   3.90460322785416  1.86687833806443
 45   3.72907155435487  1.90045214824199
 46   3.55237456856733   1.9313500299135
 47   3.37473931436301  1.95958859831755
 48   3.19638183724587   1.9852168222241
 49   3.01750460282345  2.00831233527301
 50   2.83829400216148  2.02897733197549
 51   2.65891814146068  2.04733417947297
 52   2.47952506765236  2.06352089159676
 53   2.30024152692835  2.07768661443524
 54   2.12117229816827  2.08998726241837
 55   1.94240009463153  2.10058142307911
 56   1.76398598962973  2.10962662076165
 57    1.5859702969776  2.11727599865602
 58   1.40837382436154  2.12367544830492
 59    1.2311994153947  2.12896118892865
 60   1.05443370138817  2.13325777728436
 61  0.878048994044105   2.1366765130747
 62  0.702005262997994  2.13931419514358
 63  0.526252155547027  2.14125217932122
 64    0.3507310286902  2.14255568900014
 65   0.17537697493121  2.14327333343093
 66  0.00012083268183451  2.14343679543403
 67   -0.1751088206734   2.1430606589334
 68  -0.350383690002051  2.14214235674991
 69  -0.525773792129497  2.14066222987134
 70  -0.701345487655819  2.13858370045092
 71  -0.877159510123397  2.13585357162384
 72  -1.05326899153593  2.13240247741436
 73  -1.22971748911637  2.12814551503065
 74  -1.40653702613233  2.12298309912751
 75  -1.58374616943745  2.11680208247689
 76    -1.761348177714  2.10947718915899
 77  -1.93932926661871  2.10087280406191
 78  -2.11765704911263  2.09084515539762
 79  -2.29627921973417  2.07924491453044
 80  -2.47512255851681  2.06592021947252
 81  -2.65409233135579  2.05072010531517
 82  -2.83307215646185  2.03349829781318
 83  -3.01192438901765  2.01411729741387
 84  -3.19049104714179   1.9924526531862
 85  -3.36859526229134   1.9683973029083
 86  -3.54604318901417  1.94186584057991
 87  -3.72262625751041  1.91279856863581
 88  -3.89812360453423  1.88116520034282
 89  -4.07230448103132  1.84696809726311
 90  -4.24493041472107  1.81024495395864
 91  -4.41575690619552  1.77107087222362
 92  -4.58453445838277  1.72955979428964
 93  -4.75100877895644  1.68586528346233
 94  -4.91492004958405  1.64018064805182
 95  -5.07600122127551  1.59273839919927
 96  -5.23397536978908  1.54380901683621
 97  -5.38855222961941  1.49369897454456
 98  -5.53942412169016  1.44274794958174
 99   -5.6862616006994  1.39132512638118
100  -5.82870927358722  1.33982449850708
101  -5.96638237866849   1.2886590918164
102  -6.09886486294687  1.23825407140021
103  -6.22570985918933  1.18903874502873
104   -6.3464436858205  1.14143749881938
105  -6.46057491409902  1.09585960652119
106  -6.56761107433587  1.05268743730292
107   -6.6670882827473  1.01226137112052
108  -6.75862627499694 0.974856541021469
109  -6.84204049189098 0.940638294914006
110  -6.91759435508485 0.909561642672751
111  -6.98661468984254 0.881121883916924
112  -7.05305900515492 0.853712434739368
113  -7.12736827959093 0.823039494116572
114  -7.23357708619238 0.779210480197931
115  -7.42174798165843 0.701889905393045
116   -8.1779051108244 0.406579685691264
117  -8.81362689918807 0.318089437469058
118  -9.32288004060612 0.455531868859329
119  -9.71259581811999 0.810523762769444
120  -9.85822422825784  1.31459704806866
121  -9.71074008667241  1.82076474613787
122  -8.92055361439224  2.32772264699985
123  -7.97801097033575   2.3480503802823
124  -7.04285607101577  2.16478602810268
125   -6.1036762830592  2.00013422253267
126  -5.15763572662941   1.9786516398966
127  -4.21861133702903  2.10908823420673
128  -3.26829063466647    2.282189126867
129  -2.22593046430536   2.3708800506331
130  -1.15734447562725  2.38352403499332
131  -0.00896507434088967  3.01548168203596
132  0.976145247557035  3.01235704725111
133   1.96079814079661  2.96920792559464
134   2.98285419635116  2.88325224376815
135   4.00763983013235  2.73451099701442
136    5.0246262517596  2.58482413632212
137   6.05181971613756  2.59507449147951
138    7.0852122726829  2.73826127383711
139   8.14080732685487  2.87770729324468
140   9.21350816063928  2.77383064390779
141    10.060122081319  2.10491547676355
142    10.320006885257  1.48260529247139
143   10.2267928364807 0.813707472693488
144    9.8573376031297 0.246392897156875
145   9.30365054779603 -0.140639828029803
146   9.59449214121602 -0.754285867341777
147    9.5691556011859 -0.996382471763589
148   9.41773283100099 -1.20749114174605
149   9.23619021398001 -1.39511899628505
150   9.02960656156539 -1.55557136868403
151   8.80506738840378 -1.68768427979184
152   8.56900105439172 -1.79226744466244
153   8.32643572826474 -1.87112894288618
154   8.08120546147407  -1.9265961002022
155   7.83616928531354  -1.9612798273317
156   7.59338588855561 -1.97788739911552
157   7.35426174834251 -1.97908050833663
158   7.11968182423802 -1.96738011436887
159   6.89012570525829 -1.94510839078481
160   6.66576850398162 -1.91435926918942
161   6.44656553756639 -1.87698997209647
162   6.23232090195592 -1.83462674472672
163   6.02274113165646  -1.7886791981293
164   5.81747582957583 -1.74035904646746
165   5.61614742685283 -1.69070030979878
166   5.41837220227961 -1.64057912267968
167   5.22377448413558 -1.59073209748429
168   5.03199567624821 -1.54177275792761
169   4.84269946013064 -1.49420592829733
170   4.65557426008102 -1.44844018789073
171   4.47033383082477 -1.40479862232467
172   4.28671663802067 -1.36352815740205
173   4.10448454534524   -1.324807770488
174   3.92342119091639 -1.28875585437954
175   3.74333032439778 -1.25543696986365
176   3.56403428037556  -1.2248681732258
177   3.38537268225982 -1.19702505032063
178   3.20720140485572 -1.17184753522083
179    3.0293917745127  -1.1492455439718
180   2.85182995438737 -1.12910441644327
181   2.67441644809056 -1.11129013385611
182   2.49706565502517 -1.09565426654195
183   2.31970542074501 -1.08203860442659
184   2.14227654088905 -1.07027942900511
185   1.96473219346971 -1.06021139709568
186   1.78703728857066 -1.05167102046978
187   1.60916773532742 -1.04449973917297
188   1.43110963310675 -1.03854659834304
189   1.25285839753537 -1.03367054770469
190   1.07441783327277 -1.02974238937205
191  0.895799165039774 -1.02664640323333
192  0.717020037128679 -1.02428168037741
193  0.538103489964306 -1.02256319420564
194  0.359076920598944 -1.02142263651677
195   0.17997103250317 -1.02080904237865
196  0.000818778753749095 -1.02068922335631
197  -0.178345698246744 -1.02104802392121
198  -0.357488128052249 -1.02188841082374
199  -0.536575172369841 -1.02323140001723
200  -0.715575482182033  -1.0251158204819
201  -0.894460749631654 -1.02759790910812
202   -1.0732067520604 -1.03075072575031
203  -1.25179438487504 -1.03466337277811
204  -1.43021067893283 -1.03943999908837
205  -1.60844979691318 -1.04519856481669
206  -1.78651400174061 -1.05206934018287
207  -1.96441458867437   -1.060193110365
208   -2.1421727714221 -1.06971905841476
209  -2.31982051194837 -1.08080230040036
210   -2.4974012840774 -1.09360105153436
211  -2.67497076321799 -1.10827340918116
212  -2.85259743929233 -1.12497374822244
213  -3.03036315778564 -1.14384873570406
214  -3.20836360482729 -1.16503298383109
215  -3.38670876559255 -1.18864437138736
216  -3.56552339916434 -1.21477907111029
217  -3.74494758421001 -1.24350632165726
218  -3.92513739444781 -1.27486297481158
219  -4.10626575679649  -1.3088478293058
220  -4.28852352496714 -1.34541573097088
221  -4.47212076513566 -1.38447137516991
222  -4.65728819777667 -1.42586269359724
223  -4.84427867103176 -1.46937364716084
224  -5.03336845579514  -1.5147161852506
225  -5.22485804860621 -1.56152107675636
226  -5.41907204002834 -1.60932727996084
227  -5.61635744529742 -1.65756951075336
228  -5.81707969142615 -1.70556371023547
229  -6.02161520374507  -1.7524902288012
230  -6.23033923540742 -1.79737476693514
231  -6.44360724999311 -1.83906748393225
232  -6.66172783635139 -1.87622125012855
233  -6.88492487274066 -1.90727081744331
234  -7.11328656457306 -1.93041573522263
235  -7.34669917996721 -1.94361110783647
236    -7.584763900724 -1.94457165006106
237  -7.82669615986628 -1.93079570211164
238  -8.07120775836161 -1.89961659370704
239  -8.31637180652337 -1.84828880367765
240  -8.55946676608034 -1.77411642301223
241  -8.79678576238794 -1.67463533194008
242  -9.02339011324935 -1.54788205110627
243  -9.23289597036003 -1.39286528240985
244  -9.41826925853596 -1.21053331008476
245  -9.57445423644906 -1.00439530627181
246  -9.60315543392517 -0.764057189421401
247  -9.32464500205524 -0.145581770885935
248  -9.89319702126187 0.219587051542199
249  -10.2816362234938 0.774308966822054
250  -10.4002373893726  1.43954868678909
251  -10.1615975103709  2.07043075837687
252  -9.33929814026532  2.76867528697793
253  -8.26851057531195  2.89023790642862
254  -7.21173630659903   2.7553635125576
255  -6.17811321124787  2.60447243802534
256    -5.150106877595  2.58321462039851
257  -4.12748326768647  2.71118155528738
258  -3.09698116523318  2.86445791140301
259   -2.0598361063381  2.93961250314675
260   -1.0288346068632  2.96085591149028
