// Id               X                Y
  1  -0.071731874142051 0.592465039535102
  2  0.950725130239536 0.633092996972097
  3   1.97959044296562 0.761156831411073
  4   3.01055826789093 0.939826193192691
  5   4.03850714396446  1.09366635694918
  6   5.06877760013538  1.13713646410138
  7   6.04629136778243  1.05777043440994
  8   6.96246884510346 0.810843466198302
  9   7.76322594846908 0.339760584691714
 10   8.32372094092523 -0.382992096913835
 11   8.45230711940247 -1.29170769163735
 12   8.23727516948093 -1.77024063331209
 13   7.74527381617784 -2.12510669185976
 14   7.06862405566206 -2.05635628042621
 15   6.72636732252619 -1.45062153489123
 16   7.26326976052665 -0.768232238764184
 17   7.32774739120673 -0.503501838861207
 18   7.28449289581974 -0.286297427193797
 19   7.18025322605246 -0.103215807287688
 20   7.04012609668295 0.0463853713658028
 21   6.88931857655196 0.164360996293695
 22   6.73641934067013 0.261308430094789
 23   6.58243425178246  0.34491428872022
 24   6.42764112644119 0.418999901148782
 25   6.27208730412555 0.485522563382712
 26    6.1157683266223 0.545469288567998
 27   5.95869262043612 0.599307204944604
 28    5.8009030774718 0.647225787684426
 29   5.64248226644788 0.689271960752339
 30   5.48355075853138 0.725427632344025
 31   5.32426238566853 0.755656181217255
 32   5.16479855347872 0.779933239738684
 33   5.00536340136476 0.798271158524936
 34   4.84618204697451   0.8107426978558
 35   4.68750400827769 0.817506352596324
 36   4.52959411139103 0.818831998781736
 37   4.37260996937778 0.815112321773757
 38   4.21652968673663 0.806833552177418
 39   4.06131847257717 0.794534875344647
 40   3.90695424119522 0.778776782481231
 41   3.75340244656268 0.760112680585754
 42   3.60060911275201 0.739068609909166
 43   3.44850418561334 0.716132054520128
 44   3.29700762732403 0.691747736562872
 45   3.14603509862746 0.666317788798597
 46   2.99550231342384 0.640204234326047
 47   2.84532806792289 0.613732424934153
 48   2.69543622533171 0.587194675270075
 49   2.54575695244619 0.560853716675451
 50   2.39622743928593 0.534945818732604
 51   2.24679226193438 0.509683542916619
 52   2.09740349459682 0.485258145540076
 53   1.94802064107021 0.461841665683567
 54   1.79861043359944 0.439588735434405
 55   1.64914653338965 0.418638144215024
 56   1.49960915813782 0.399114181484021
 57    1.3499846555992 0.381127775372544
 58   1.20026503726755 0.364777440247423
 59   1.05044748224733 0.350150044310747
 60  0.900533818191833 0.337321409095692
 61  0.750529983757456 0.326356755555569
 62  0.600445475363695 0.317311015446539
 63  0.450292780095606 0.310229030735994
 64  0.300086796234057 0.305145666678211
 65  0.149844243011427 0.302085865039061
 66  -0.000416938397281883  0.30106466215079
 67  -0.150678190102659 0.302087191935705
 68  -0.300920945919987 0.305148687127525
 69  -0.45112723966576 0.310234483409411
 70  -0.601280310016042 0.317320022105301
 71  -0.751365198893712 0.326370838523744
 72  -0.901369340837034 0.337342516092219
 73  -1.05128314134646 0.350180581811137
 74  -1.20110054263608 0.364820316685138
 75  -1.35081957535396 0.381186455567261
 76  -1.50044289451844 0.399192753720072
 77  -1.64997829700683 0.418741401419302
 78  -1.79943921632271  0.43972227195512
 79  -1.94884518800339 0.462011991285276
 80  -2.09822227589486 0.485472818435282
 81  -2.24760344561109 0.509951323964863
 82  -2.39702886668873 0.535276849344235
 83  -2.54654611881268 0.561259723404211
 84  -2.69621026894459 0.587689204426687
 85  -2.84608377309859 0.614331110502074
 86  -2.99623613528243 0.640925101414203
 87  -3.14674322173245 0.667181591707664
 88  -3.29768607606737 0.692778323312835
 89  -3.44914901084298 0.717356735235718
 90  -3.60121668290723 0.740518480381249
 91   -3.7539698623182  0.76182281009527
 92  -3.90747984771681 0.780786116179714
 93  -4.06180231933985 0.796885640025357
 94  -4.21697350594068 0.809569936453955
 95  -4.37301576985037 0.818278331295394
 96  -4.52996159645764 0.822468814131692
 97  -4.68784030256199  0.82164945456227
 98    -4.846512894216 0.815418023660386
 99   -5.0057168309171 0.803494439540795
100  -5.16520068818873 0.785712209850689
101  -5.32473822651414 0.761992986341972
102  -5.48412474133342 0.732320846640743
103  -5.64317850659641 0.696718074025557
104  -5.80174551986121 0.655220169280151
105  -5.95970522663625 0.607844640549755
106  -6.11697541364159 0.554544230214009
107   -6.2735142106451  0.49512923849092
108  -6.42931555009683 0.429132394410482
109  -6.58438901697043 0.355566570881758
110  -6.73869858823167 0.272473635435161
111  -6.89199428358608 0.176025297630412
112  -7.04335902146433 0.0584806935280423
113  -7.18422435626055 -0.0908341316077154
114  -7.28921371774765 -0.273747048261171
115  -7.33322921081875 -0.490899668616631
116  -7.26968219531599 -0.755834978440271
117  -6.73529819361624 -1.44005250377612
118  -7.07837761922527 -2.04484118778151
119  -7.75441379267923 -2.11777703258021
120  -8.24972057449794 -1.77150502964639
121  -8.47385157389125 -1.29727523890848
122  -8.36352342370763 -0.386701646678918
123     -7.81456426746  0.34316891828472
124  -7.01881099755944 0.818374166386837
125  -6.10532723665565  1.06334964883933
126  -5.13437755888021  1.13713762912285
127  -4.10918283651657  1.09312049042629
128  -3.07015453735035 0.957240505421102
129  -2.04880353758659 0.781374471529714
130  -1.04791536991539 0.643200558776536
131  -0.0300725098494069  1.18377392275805
132   1.05764933733944  1.22023060969681
133    2.1401269312068  1.34710909450519
134   3.22045687021731  1.51232225271099
135   4.30999978685568  1.63897848766581
136   5.40982276896214  1.64582398788541
137   6.50140206941784  1.47207682380844
138    7.5318020391714  1.04936692240401
139   8.38062242433201  0.31233553140335
140   8.83150301509404 -0.729466687274356
141   8.56755403196651 -1.84141142897772
142   7.99617021644188 -2.28746951990264
143   7.26909154474091 -2.35608686473724
144   6.58515439495468 -2.10827192026679
145   5.94830226008702 -1.84315722204473
146   5.11420837616937  -2.0802551263906
147    4.9299947412384 -2.09917389246795
148   4.90852234586964 -2.09916264126422
149   4.88742710053103 -2.09878621015262
150   4.86421239070174 -2.09804646739684
151   4.83472991744741 -2.09675286851919
152   4.79832102194524 -2.09483139750536
153   4.75592076326527  -2.0924195667188
154   4.70860493008459 -2.08978929168566
155   4.65722854360955 -2.08725548496434
156   4.60236759920719 -2.08511920075186
157   4.54435971250902 -2.08364589964574
158    4.4833588961715 -2.08306363254948
159   4.41937772494344 -2.08356903106908
160   4.35231268187867 -2.08533503778954
161   4.28195399022603 -2.08851826137681
162   4.20797914986431 -2.09326619841604
163   4.12992213103781 -2.09972675719686
164   4.04709553548924 -2.10806601760831
165    3.9584298174467 -2.11850480105981
166   3.86240594814778 -2.13135714707627
167   3.75845563231953 -2.14684058972813
168   3.64822967869945 -2.16478899761682
169   3.53345182659844 -2.18491167559801
170   3.41524072483128 -2.20693885474912
171   3.29434521986962 -2.23061331469435
172   3.17130357511665 -2.25567546586252
173   3.04651888737159 -2.28185856710649
174    2.9202987424768 -2.30889092181249
175   2.79288002200951  -2.3365012286313
176   2.66444655824988 -2.36442440977984
177   2.53514245741763 -2.39240647438772
178   2.40508227358808 -2.42020790678979
179   2.27435870730592 -2.44760562323642
180   2.14304834152045 -2.47439378845248
181   2.01121584944691  -2.5003838390697
182   1.87891704113279 -2.52540401984669
183    1.7462010471019 -2.54929866309155
184   1.61311187304714  -2.5719273652207
185   1.47968950402066 -2.59316415120592
186    1.3459706918259  -2.6128966715444
187    1.2119895247235 -2.63102544627558
188   1.07777785220296 -2.64746315371761
189  0.943365617278311 -2.66213395495427
190  0.808781132785922 -2.67497284577036
191  0.674051325432546 -2.68592503302433
192  0.539201961435533 -2.69494533990295
193   0.40425786046053 -2.70199765197915
194  0.269243100174307 -2.70705442180041
195  0.134181211836307 -2.71009625277071
196  -0.000904632628282948  -2.7111115828946
197  -0.135991440518799 -2.71009648565674
198  -0.271056222315701 -2.70705459950366
199  -0.406075815936882 -2.70199718996829
200  -0.541026707518972 -2.69494334048709
201  -0.675884845807335 -2.68592026050756
202  -0.81062544858336 -2.67496369362838
203  -0.945222800696345 -2.66211840515272
204  -1.07965004334359 -2.64743872816855
205  -1.21387895244063 -2.63098915024153
206   -1.3478796996663 -2.61284492857975
207  -1.48162058280413 -2.59309272902779
208  -1.61506770232118 -2.57183129181228
209  -1.74818454869331 -2.54917213247999
210  -1.88093144940759 -2.52524028752735
211  -2.01326480481625 -2.50017510818258
212  -2.14513601635884 -2.47413108981657
213  -2.27648997693868 -2.44727869550422
214  -2.40726294945581 -2.41980508752814
215  -2.53737960488666 -2.39191461880059
216  -2.66674892753465 -2.36382886040826
217  -2.79525862688789 -2.33578586478633
218  -2.92276762801247 -2.30803831771928
219  -3.04909613766311  -2.2808502759305
220  -3.17401263767132 -2.25449241352794
221  -3.29721670413938  -2.2292362236098
222  -3.41831507963629 -2.20534852208783
223  -3.53678400355088 -2.18308882262388
224  -3.65189868970566 -2.16271334712233
225  -3.76258466231802  -2.1444891626629
226  -3.86717756513248 -2.12870615153063
227    -3.963928182118  -2.1155557970709
228  -4.05319443708802 -2.10485021078354
229  -4.13650262869433 -2.09626859367597
230  -4.21496522478677 -2.08958165912278
231  -4.28929457554836 -2.08461948288791
232  -4.35997056459729 -2.08123270214322
233  -4.42732409649573 -2.07927339408732
234  -4.49157045552467 -2.07858495781511
235  -4.55281687622099  -2.0789946516328
236  -4.61105323483227 -2.08030615366392
237  -4.66612702011486 -2.08229182989618
238  -4.71770144485385   -2.084686808092
239  -4.76520095609671 -2.08719092262451
240  -4.80777075357439 -2.08949057140354
241  -4.84433436170649 -2.09131563166867
242  -4.87395074526157 -2.09252957556075
243  -4.89727556719368 -2.09320523756169
244  -4.91847287192907 -2.09351976185532
245  -4.94005286437831  -2.0934654062542
246  -5.12428513677081 -2.07394821589648
247  -5.95784422250741 -1.83428723100317
248  -6.59460481667071 -2.09836220531792
249  -7.27741045233439 -2.34756313141154
250  -8.00446710683989 -2.28499859647882
251  -8.58157846517129 -1.84721791089503
252   -8.8656732223193 -0.74065024655628
253  -8.43149125383147 0.308004241822582
254  -7.58987575290988  1.05297568723246
255  -6.56074396201261  1.47776358258299
256  -5.46971516479765  1.64981982526597
257  -4.37097858346831  1.64339769390151
258  -3.28160139973862  1.52728749533963
259  -2.20031815193551  1.36917197896733
260   -1.1180923272805  1.23936593690016
