// Id               X                Y
  1  -0.362391196555404  7.56277783629998
  2  0.706325387231098  7.51533786868044
  3   1.74991063688881  7.30374234943347
  4   2.73896389452751   6.9367118664597
  5   3.64489823759864  6.43142810315146
  6   4.48878047626508  5.79627402207523
  7   5.29180006593109  5.08333690052006
  8   6.12153548012974  4.40765212527331
  9   6.98119381821652  3.77622158381104
 10   7.82378336166137  3.12610311018255
 11   8.53000108251567  2.31953878915306
 12   8.71899214204442  1.68068055007567
 13   8.58803500140048  1.05129788721074
 14   8.20041732162119 0.711394699299493
 15   7.71993094876765 0.690289911570026
 16   7.17875353978147  1.22991656438817
 17   6.97592204926515  1.53943822361901
 18   6.84974274284458  1.75259840748253
 19   6.79079109236217   1.8560236516423
 20   6.73731444583764  1.95180978637924
 21   6.68601769719226  2.04515512132362
 22   6.63618100980527  2.13711485215828
 23   6.58708804122832  2.22852848249116
 24    6.5380588576117  2.32063093952974
 25   6.48825015835064  2.41463663721759
 26   6.43705654151396  2.51167965380497
 27   6.38389847875117  2.61259284846612
 28   6.32837657634371  2.71799422103259
 29   6.27013695255575  2.82827334372001
 30   6.20888613066302  2.94366800118652
 31   6.14433540164454  3.06429558571777
 32   6.07618493921918  3.19019134967836
 33   6.00410262638101  3.32132956848533
 34   5.92771367035666  3.45763729434954
 35   5.84659522737516  3.59899845167533
 36   5.76027810067609  3.74524895847221
 37   5.66825648058593  3.89616181020742
 38   5.57000762429187  4.05142215969785
 39   5.46502167086884  4.21059633026468
 40   5.35283716242702  4.37310579059865
 41    5.2330723567385  4.53822165412091
 42   5.10544236667955  4.70508857094705
 43   4.96976001594639  4.87277069469471
 44   4.82592670567274  5.04030192498044
 45   4.67392103535432  5.20672626461225
 46   4.51378918689142  5.37112403820801
 47    4.3456375333596  5.53262634448949
 48   4.16962657884285  5.69042179191706
 49   3.98596539509965  5.84375877476293
 50   3.79490615752976  5.99194532537937
 51   3.59673872651714   6.1343476710956
 52   3.39178538792662  6.27038809156766
 53   3.18039590687321  6.39954239401352
 54   2.96294302295601  6.52133718649124
 55   2.73981846515417  6.63534706254354
 56   2.51142951365965  6.74119177664006
 57   2.27819609449349   6.8385334707875
 58   2.04054836400844  6.92707400029536
 59   1.79892472382721  7.00655239756222
 60   1.55377020024435  7.07674250557246
 61    1.3055351229178  7.13745080710954
 62   1.05467404311606    7.188514471302
 63  0.801644839548677  7.22979963582813
 64  0.546907968087895   7.2611999406301
 65  0.290925819259347  7.28263532696497
 66  0.0341621535537053  7.29405111366797
 67  -0.222918410845093  7.29541736030366
 68  -0.479850880332552  7.28672852424329
 69  -0.736170358914411  7.26800341560044
 70  -0.991412532176694  7.23928545050029
 71  -1.24511418273147  7.20064319956929
 72  -1.49681375894406  7.15217122505978
 73  -1.74605202103175  7.09399119686974
 74  -1.99237279206523  7.02625327498023
 75  -2.23532384606681  6.94913774348269
 76  -2.47445797112789  6.86285687926677
 77  -2.70933425175823  6.76765703639009
 78  -2.93951962057596  6.66382092497904
 79  -3.16459073350354  6.55167006112261
 80  -3.38413622293567  6.43156736164782
 81  -3.59775937760772  6.30391985500588
 82  -3.80508128368057  6.16918147675344
 83   -4.0057444366708  6.02785591476897
 84  -4.19941679710601  5.88049946346552
 85  -4.38579621549894  5.72772383251838
 86  -4.56461510113186  5.57019882110686
 87  -4.73564517149126  5.40865468447848
 88  -4.89870213083239  5.24388382580093
 89  -5.05365025021842  5.07674103063926
 90  -5.20040714235034  4.90814065141111
 91  -5.33894958363715  4.73904779514396
 92  -5.46932180658638  4.57045891906559
 93  -5.59164736121284  4.40336681355808
 94  -5.70614284247729  4.23870912505792
 95  -5.81312636673109  4.07731059024579
 96  -5.91301064486079  3.91984028074813
 97  -6.00627672121525  3.76680161903594
 98  -6.09343645794054   3.6185533469908
 99  -6.17499717946812  3.47534373732041
100  -6.25143718671714  3.33734084189143
101  -6.32319388325249  3.20465057841731
102  -6.39066278223383  3.07732124562944
103  -6.45420544023852  2.95533520169902
104   -6.5141653033226  2.83858805521789
105  -6.57089118334507   2.7268550204232
106  -6.62476790857909  2.61974469474326
107  -6.67625196790056  2.51664414589176
108  -6.72590584209259   2.4166680266348
109  -6.77441697763696   2.3186412384559
110  -6.82257610740426  2.22116886563367
111  -6.87118650440588  2.12285272360056
112  -6.92093990721552  2.02257667495849
113  -6.97263683517087  1.91908850172582
114  -7.02957044654483   1.8063325027275
115  -7.14847093073216  1.57622863315269
116  -7.33049338059769  1.25187327749856
117  -7.82249240118718  0.66507366954547
118   -8.3010091148375 0.629336084160813
119  -8.72553127148906 0.915913426113712
120  -8.92661356296616   1.4672035922921
121  -8.81571641029995  2.10899536549879
122  -8.16973997888361  2.94273572488045
123  -7.37324034893872  3.59031878293875
124  -6.55959459626239  4.19491913142055
125  -5.76847731284729  4.83786577615331
126  -5.01465646726412   5.5205688305675
127  -4.27046604899427  6.17196473379137
128  -3.40598477647708  6.73077070505853
129  -2.44874924180218  7.16175328479293
130  -1.41148435973372  7.40826189861454
131  -0.0860436728516284  8.07786649424069
132   1.01705130869848  8.01336490491873
133   2.09364055773829  7.77830242196406
134   3.11821173476477  7.38123837966792
135   4.06714592697708  6.83414816707934
136   4.93571938537446   6.1736914784763
137   5.76154054668243  5.46654817230414
138   6.60460754020708  4.78264359252823
139   7.47681425918375  4.13435320087731
140   8.32107440321652  3.44680254987362
141   8.98129336578051  2.58139943478885
142   9.16245006868962  1.91711019933575
143   9.06156079188695  1.22048564886908
144   8.69218419758586 0.599194076821316
145   8.19467639954916 0.066294679251104
146   7.78489810665239 -0.562680902068433
147    7.5909968283545 -0.732979716222833
148   7.38499104155398 -0.851745262198683
149   7.16180233650791 -0.930190039496177
150   6.93271030659119 -0.96916163211246
151   6.70350311801119 -0.972683153214071
152   6.47817027490432 -0.944851512730566
153    6.2594654210744 -0.889661998301386
154   6.04926551182172 -0.81099871797634
155   5.84873013541567 -0.712587198095743
156   5.65840215828399 -0.597888090083272
157   5.47832379919788 -0.469992450336028
158   5.30816986565702 -0.331565204083679
159   5.14737299948755 -0.184844306164978
160   4.99522339383436 -0.0316797523365288
161    4.8509381393696 0.126408035785105
162   4.71370444716994 0.288165819454262
163   4.58270383197895  0.45254996124317
164    4.4571240957586 0.618677479539806
165   4.33616439419245 0.785786679034469
166   4.21903697578517 0.953207014442697
167   4.10496773448184  1.12033751517146
168   3.99319669022837  1.28663302847078
169   3.88297904989742  1.45159702031722
170   3.77358765504043  1.61477834909933
171   3.66431791310348  1.77576817785619
172   3.55449574207003  1.93419396283536
173    3.4434874882213  2.08971050327164
174   3.33070963494866  2.24199055187751
175   3.21563647621531  2.39071734590707
176   3.09780510466594  2.53557977843612
177   2.97681797492311  2.67626971324894
178   2.85234364353513  2.81248065405813
179   2.72411627287103  2.94390718818561
180   2.59193434705004  3.07024491962683
181   2.45565889469601   3.1911908138034
182     2.315211383061  3.30644397291893
183   2.17057135146705  3.41570687447281
184   2.02177379140136  3.51868707164738
185    1.8689062536675  3.61509930289873
186   1.71210566331162  3.70466791051071
187   1.55155484128411  3.78712943669858
188   1.38747875784242  3.86223525583194
189   1.22014056771593  3.92975411119683
190   1.04983749487475  3.98947444933775
191  0.876896642320479  4.04120647773254
192   0.70167079937562  4.08478390587299
193  0.524534307204994  4.12006536059166
194  0.345879025550836  4.14693549033007
195  0.166110422994639  4.16530578840328
196  -0.0143562076889388  4.17511517205692
197  -0.195099426050146  4.17633035314221
198  -0.375695243960681   4.1689460290835
199  -0.555720690366757  4.15298491132605
200  -0.734757386180131  4.12849759459394
201  -0.912395173022262  4.09556225604414
202   -1.0882358322473  4.05428416074345
203  -1.26189691826403  4.00479494075075
204  -1.43301571358765  3.94725161128447
205  -1.60125329372304  3.88183529057853
206  -1.76629866992827  3.80874960117802
207  -1.92787295968109  3.72821874987057
208  -2.08573352116318  3.64048531024928
209  -2.23967798209463  3.54580776356463
210  -2.38954809687819  3.44445788586571
211   -2.5352333798036  3.33671809683184
212   -2.6766744842579  3.22287890187476
213  -2.81386632392525  3.10323655848754
214  -2.94686095456637  2.97809107747437
215  -3.07577024505827  2.84774463136006
216  -3.20076835465911  2.71250039437311
217  -3.32209399226193   2.5726617976271
218  -3.44005235775978  2.42853217579122
219  -3.55501655308102  2.28041484424135
220  -3.66742810088854  2.12861382174364
221  -3.77779603331092  1.97343572981851
222   -3.8866938714255  1.81519378544397
223  -3.99475389981205  1.65421492697753
224   -4.1026587973248  1.49085032288764
225   -4.2111320453416  1.32548752743073
226  -4.32092972206358  1.15856092484735
227  -4.43283578031532 0.990558585209706
228   -4.5476608381584 0.822027811777455
229  -4.66624298631391 0.653584319531646
230  -4.78944904501133  0.48592926126413
231  -4.91817495697283 0.319876334622633
232   -5.0533435241956 0.156389931572885
233  -5.19589636324559 -0.00336533393551594
234   -5.3467750621867 -0.157964389078506
235  -5.50688454955055 -0.305653873326202
236   -5.6770306389285 -0.444284531275109
237  -5.85782560507619 -0.571258507544102
238  -6.04956323226499 -0.68351263206306
239  -6.25207882885338 -0.777557327338088
240  -6.46462155038304 -0.849569975175995
241  -6.68574915298371 -0.895498473391943
242  -6.91317816698559 -0.911100859614799
243  -7.14342529841414 -0.891918084924079
244  -7.37114581048905 -0.833407607282833
245  -7.58492415063625 -0.733894481281869
246  -7.79196002720787 -0.581850988958687
247  -8.25309447600558 0.00894889340081807
248  -8.79211208915717 0.500554854950746
249  -9.20048998013717  1.09853211708326
250  -9.33325544844709  1.79456689465025
251  -9.18587031528454  2.47550274810849
252  -8.56492271594374  3.37683563223924
253  -7.73049140626562  4.08283166303419
254  -6.85122926197454  4.73201075585559
255  -5.99087530631602  5.40923598525806
256  -5.14789213385185  6.11588845114791
257  -4.26512618998555  6.77990208068569
258   -3.3048396472204  7.33089141340349
259  -2.27038275124162  7.73046063896211
260  -1.18864156059357  7.97241523134606
