// Id               X                Y
  1  -0.0732399567151216 -0.00356024045401257
  2  0.854645998083688 0.0170140179986158
  3   1.76191072671994 0.190092505969434
  4   2.62718255116676  0.48542335542858
  5   3.44686540247012  0.86770963162407
  6   4.23314808610151  1.29422681181679
  7   5.01192610885122  1.71478427537159
  8   5.81615999089834  2.07475432106256
  9    6.6728326829209  2.25542908513276
 10   7.53076817993564  2.12748386321043
 11   8.26832110391823  1.65660992180568
 12   8.54991267882523  1.26055858220931
 13   8.70311218424541 0.773593007392685
 14   8.61656747383626 0.146723372510292
 15    8.0360465120251 -0.263020713150728
 16   7.91348915075439 0.647137055521735
 17   7.75374815600712 0.909428385637314
 18   7.52770482593112  1.02128912423885
 19   7.27896437499153  1.04319093472652
 20   7.03589647103478  1.01158184228345
 21   6.80629383442348 0.952196655191364
 22   6.58929770181974 0.876486197117318
 23    6.3838945927684 0.790357322968913
 24   6.21059346715047 0.709270224496912
 25   6.04969358593954 0.629555749826682
 26   5.89526228619322 0.551387933379885
 27   5.74478544458878 0.475646456687316
 28   5.59661092019333 0.402953065663124
 29   5.44962807987472  0.33368832557384
 30   5.30312842553345 0.268082945922452
 31   5.15668961288463 0.206288755237963
 32   5.01007722992673  0.14841916445087
 33   4.86317091887031 0.0945640600409011
 34    4.7159166514352 0.0447877022137578
 35   4.56830131753875 -0.000880920326570206
 36   4.42034177474841 -0.0424573485057616
 37   4.27207958892715 -0.0800059105988529
 38   4.12357526596887 -0.113637936684201
 39   3.97490012000607 -0.143505470979156
 40   3.82612736259694 -0.169793177115141
 41   3.67732500179001 -0.192710941625753
 42   3.52855211018722 -0.212488538574981
 43   3.37985832470553 -0.229372236128155
 44   3.23128518360904 -0.24362206090678
 45   3.08286753453337 -0.255508050100893
 46   2.93463374808877 -0.265304331870992
 47   2.78660453757428 -0.273281021996233
 48    2.6387912422403 -0.279695152870648
 49   2.49119485902784 -0.284782544811013
 50   2.34380668497596 -0.288752357756614
 51   2.19661054122895 -0.291785179621626
 52   2.04958582995979 -0.294034423147241
 53   1.90271049715915 -0.295630015255941
 54   1.75596325763586 -0.296683092009758
 55   1.60932487491156 -0.297290583775806
 56   1.46277862410553 -0.297538971649976
 57   1.31631021385806 -0.297506912372111
 58   1.16990744113141 -0.297266745544515
 59   1.02355977678206 -0.296885080159462
 60  0.877257991430103 -0.296422726140291
 61  0.730993861726843 -0.295934229091058
 62  0.584759954690106 -0.295467219593214
 63  0.438549468414975 -0.295061729148971
 64   0.29235610363422 -0.294749569477902
 65  0.146173945310566 -0.294553828154008
 66  -2.65843481949787e-06 -0.294488503798648
 67  -0.146179224534493 -0.29455828719999
 68  -0.292361268460142 -0.294758487983144
 69  -0.438554437712431 -0.295075106047426
 70  -0.584764640051412 -0.295485048726281
 71  -0.730998164617042 -0.295956494193065
 72  -0.877261800450228 -0.29644939483591
 73   -1.0235629651656 -0.296916097390176
 74  -1.16990986467164 -0.297302026710875
 75  -1.31631170955096 -0.297546336166521
 76  -1.46277900985183 -0.297582372024994
 77  -1.60932395057923 -0.29733773974902
 78  -1.75596080752886 -0.296733713136892
 79  -1.90270629334881 -0.295683719840218
 80  -2.04957963496409 -0.294090706013273
 81  -2.19660210735565 -0.291843367146976
 82  -2.34379574685613 -0.288811550391841
 83  -2.49118111642348 -0.284841551696597
 84  -2.63877433299263 -0.279752428605737
 85  -2.78658400536085 -0.273334620063192
 86  -2.93460901428951 -0.265351889705908
 87   -3.0828378844221 -0.255546814989182
 88  -3.23124977210627 -0.243648954123828
 89  -3.37981619790766 -0.229383938886214
 90  -3.52850223080919 -0.212481572990938
 91  -3.67726626327473 -0.19268171736095
 92  -3.82605857793396 -0.169737980883128
 93  -3.97481997608272 -0.143420391082192
 94  -4.12348224424347 -0.113518736750457
 95  -4.27197187173904 -0.0798478930026524
 96  -4.42021718089311 -0.0422552722444061
 97   -4.5681573250593 -0.0006290498552801
 98  -4.71575054825005 0.0450953534462957
 99  -4.86298006931842 0.0949332732598587
100  -5.00985938921785 0.148854905784911
101  -5.15644320668865 0.206794561452357
102   -5.3028527467379 0.268660512419451
103  -5.44932339540445 0.334337481711994
104  -5.59627848913549  0.40367221879881
105  -5.74442746499471 0.476433472665387
106  -5.89488194141851 0.552241402244823
107  -6.04929582006418 0.630476706340493
108  -6.21018801185777 0.710264565824711
109  -6.38349820199327 0.791437082338087
110  -6.58885963423768 0.877641028233663
111  -6.80583989551839 0.953435653118406
112  -7.03543360856997  1.01290005281459
113  -7.27850142807736  1.04458287127969
114  -7.52725670162905  1.02275303352003
115  -7.75333874138303 0.910966661376903
116  -7.91318306622315 0.648748302631626
117  -8.03655992269439 -0.261120979495843
118  -8.62027073675914 0.144410051638658
119  -8.71198029189189 0.771478963699389
120  -8.56372925110489  1.25939475484025
121  -8.28711935031817  1.65787206851323
122   -7.5558827419536  2.13646676403754
123  -6.70069760300957   2.2708818960622
124  -5.84676930447618   2.0942844894839
125  -5.04751819526383  1.73556459502235
126  -4.27662701439551  1.31415830983127
127  -3.50173913728804 0.885760289473968
128   -2.6972453490295 0.500900189190935
129  -1.85162306296797 0.202411401894669
130  -0.969861125480449 0.0258592521160771
131  -0.0168965934529922 0.575663836928409
132  0.855998425490493 0.633300148559228
133   1.71326746312187 0.810986541629201
134   2.54499818754193  1.10276804538823
135    3.3509049809132  1.48308188773089
136   4.14955335860145  1.91125727886208
137   4.98131600012061  2.33237176100742
138   5.95542234259233  2.67815965002291
139   7.03555698959362  2.75913335317104
140   8.07938595287044  2.38786378672997
141   8.77770768354745  1.51631272901805
142   8.90775006348494 0.831940653960688
143    8.7862156442775 0.120939369018342
144   8.45510287882256 -0.542676292073502
145   8.00213925296539  -1.1554739615914
146   7.42823156866087 -1.84001750076464
147   7.28708301055512 -1.96572324395138
148   7.26641240192717 -1.98284886928953
149   7.24450098241476 -2.00067881162439
150   7.21362066323678 -2.02527171763429
151   7.17126492275341 -2.05804974817447
152    7.1179436012394 -2.09784910409707
153   7.05183279880023 -2.14509130612515
154   6.94969084698517 -2.21389909267502
155   6.83674474587392 -2.28473487349366
156   6.71619556696973 -2.35498170852623
157   6.58939828040219  -2.4235930530149
158   6.45729924280969  -2.4899480800081
159   6.32060838961481 -2.55366038411437
160   6.17985978070157 -2.61449524142771
161   6.03546034967319 -2.67231812786904
162   5.88773287720139 -2.72706111520256
163   5.73694909436465 -2.77870159744717
164    5.5833508606591 -2.82724919260361
165   5.42716068636173 -2.87273762138316
166    5.2685852321059 -2.91521939367271
167   5.10781590842502 -2.95476209291413
168   4.94502942898452 -2.99144571487043
169   4.78038924915737 -3.02536078107667
170   4.61404744485547 -3.05660692807825
171   4.44614621734398 -3.08529161590626
172   4.27681856057768 -3.11152867398866
173   4.10618817371577 -3.13543661396365
174    3.9343690823294 -3.15713687486788
175   3.76146551829199 -3.17675230106746
176   3.58757241790221 -3.19440611965947
177   3.41277654347922 -3.21022149993578
178    3.2371579024216 -3.22432153630187
179   3.06079101163217 -3.23682932188548
180   2.88374568887998 -3.24786776047568
181   2.70608732987825 -3.25755889945923
182   2.52787686280852 -3.26602277429713
183    2.3491706464133  -3.2733759309171
184   2.17002050781502 -3.27972987126368
185   1.99047398999508 -3.28518964679082
186   1.81057477625738 -3.28985274471188
187   1.63036321193971 -3.29380831960069
188   1.44987684385346 -3.29713675015382
189   1.26915092209104 -3.29990945881601
190   1.08821883703237 -3.30218891749809
191    0.9071124862122 -3.30402876679744
192  0.725862578613352 -3.30547398981737
193  0.544498889415043 -3.30656109809381
194  0.363050478878486 -3.30731830222138
195  0.181545887223826 -3.30776565162581
196  1.33146602669739e-05 -3.30791513606986
197  -0.18151920684776 -3.30777074623816
198  -0.363023645426781 -3.30732849289358
199  -0.544471801118846 -3.30657638461649
200  -0.725835134046583 -3.30549436410864
201  -0.907084584254853 -3.30405420356917
202  -1.08819037662412 -3.30221936181122
203  -1.26912180166041 -3.29994481057052
204  -1.44984696026352 -3.29717684563259
205  -1.63033245874029  -3.2938529103092
206  -1.81054304098896 -3.28990147393641
207  -1.99044115027617 -3.28524202453816
208   -2.1699864260019 -3.27978524852483
209   -2.3491351627907 -3.27343347446061
210   -2.5278397875677 -3.26608144334341
211  -2.70604843450087 -3.25761742548006
212  -2.88370469777958 -3.24792463088083
213  -3.06074759470697 -3.23688276749835
214   -3.2371116683092 -3.22436952151662
215  -3.41272703191882 -3.21026171378745
216  -3.58751908843854 -3.19443596632105
217  -3.76140773265811 -3.17676888983265
218  -3.93430607978127 -3.15713701218176
219  -4.10611904171328 -3.13541680260758
220  -4.27674220597417 -3.11148512603357
221  -4.44606134445743 -3.08522028583408
222  -4.61395254640616 -3.05650357044356
223  -4.78028261459839 -3.02522103356884
224  -4.94490917214012 -2.99126520320756
225  -5.10768001186928  -2.9545365495576
226  -5.26843159994727 -2.91494477927331
227  -5.42698719426656 -2.87241023759042
228  -5.58315539872376 -2.82686577782852
229  -5.73672961684076  -2.7782594021725
230  -5.88748749262406 -2.72655795864002
231  -6.03518748706049 -2.67175244216157
232  -6.17955844628055 -2.61386611160401
233  -6.32027850737949  -2.5529675847514
234  -6.45694208745836 -2.48919207997682
235  -6.58901707080175 -2.42277489753638
236  -6.71579636300487 -2.35410259282906
237  -6.83633792441065 -2.28379506001168
238  -6.94929437689476 -2.21289511988469
239  -7.05149305343727  -2.1440003912676
240   -7.1177465302977 -2.09662499631322
241  -7.17113308378264 -2.05675124083396
242  -7.21353523553463 -2.02391733861493
243  -7.24445164873911 -1.99928133168852
244  -7.26639538277745  -1.9814154040487
245  -7.28710020348377 -1.96425187151927
246   -7.4282582339075 -1.83848695192375
247  -8.00249131969588 -1.15403683235018
248  -8.45664277913678 -0.542847959354915
249  -8.79085479554013 0.119295427156989
250  -8.91729556273341  0.82979824325713
251   -8.7929514451466  1.51591178964706
252  -8.10311672391362  2.39436154088826
253  -7.06274010103221  2.77434582130506
254  -5.98203318246034  2.69812392026554
255  -5.00750320426894  2.35220066617871
256  -4.17771911920821  1.92874005633363
257  -3.38170292666009  1.49682716775221
258  -2.57815680342926  1.11229038502645
259  -1.74756715126628 0.816538347364801
260  -0.889346859904514 0.635533426362489
