// Id               X                Y
  1  -0.0713712872304835 0.189587264407004
  2  0.908202913815294 0.191587019127331
  3   1.86043861471264 0.196397684192262
  4   2.82453814926659 0.219195762573864
  5   3.80027587966598 0.304057165107706
  6    4.7134102119259  0.60102987227199
  7   5.52418055517997  1.13339462072359
  8   6.23339345724826  1.78023571043097
  9   6.96639357488188  2.36998732911764
 10   7.85228387378646   2.6552903686636
 11   8.69179386715612  2.27747826725052
 12   8.88462785828716  1.78979816550219
 13    8.7975373553933  1.27107442452434
 14   8.47904027422082 0.842449651996449
 15    8.0174743052131 0.554545024183781
 16   7.44835881599182 0.393170438639754
 17   7.11050975926419 0.340640744809953
 18   7.11031307824691 0.340615378631346
 19     7.002079391118 0.327567776598761
 20   6.81436101214856 0.308433283438653
 21   6.61754643523963 0.291453705461389
 22   6.43733086077842 0.277368467096609
 23   6.28025334166199 0.265486613232777
 24   6.13104207962569 0.254102075929251
 25   5.98325176403319 0.242427978065971
 26    5.8354114418259 0.230137836765975
 27   5.68645341075445 0.216993276477562
 28   5.53643016608535 0.202905837287692
 29   5.38599710867492 0.187909349063703
 30   5.23586995383492 0.172113535924617
 31   5.08655531348488 0.155665713323772
 32   4.93829886612582  0.13872702208816
 33   4.79113890686713 0.121461102376562
 34   4.64498412473409 0.104030049061294
 35   4.49968281531448 0.0865937868450239
 36   4.35507322420642 0.0693101806504477
 37   4.21101605223845 0.052334526901926
 38   4.06741046625014 0.0358176069275719
 39   3.92414052707741 0.0198961463283746
 40   3.78096525963429 0.00467931029210365
 41   3.63762187314625 -0.00973900907288437
 42   3.49392329462118 -0.0232707232003952
 43   3.34975328897048 -0.0358365453100344
 44   3.20504934695568 -0.0473701372599819
 45   3.05979088190878 -0.0578212378678464
 46   2.91399017981163 -0.0671579058046798
 47   2.76768517824794 -0.0753678802715368
 48   2.62093478347973 -0.0824590143438915
 49    2.4738148758106 -0.0884589368773302
 50   2.32641338242421 -0.0934140257943763
 51     2.178826234339 -0.0973876491523636
 52   2.03115532432012 -0.100457784341332
 53   1.88350478035517 -0.102714254724511
 54   1.73597745474642 -0.104255632255031
 55   1.58867462541614 -0.105185953211894
 56   1.44169571365043 -0.105611476468784
 57   1.29513229958528 -0.105637582042759
 58   1.14906942984471 -0.105365871381284
 59   1.00357840722041 -0.104891613578236
 60  0.858705942772775 -0.104301557633611
 61  0.714460871690169 -0.103672213622479
 62  0.570810989951702 -0.103068738932389
 63  0.427665900410513 -0.102544323728094
 64  0.284905593888607 -0.10214020851009
 65  0.142394757991198 -0.101885812383112
 66  2.07570693748364e-06 -0.101798855031584
 67  -0.142390414424162 -0.101885347638533
 68  -0.284900854462709 -0.10213954833574
 69  -0.427660622911113 -0.10254400591835
 70  -0.570805055756961 -0.103069567271551
 71  -0.714454393452339 -0.103675254263161
 72  -0.85869898935426 -0.104308129626574
 73  -1.00357104433492 -0.104903273853044
 74  -1.14906188925114 -0.105384392215299
 75    -1.295124805955 -0.105664917187058
 76  -1.44168858336677 -0.105649717934347
 77  -1.58866838754765 -0.105237276318668
 78  -1.73597272474152 -0.104322229486291
 79  -1.88350229738912 -0.102798257997293
 80  -2.03115603266237 -0.100561175198046
 81  -2.17883120264911 -0.097512160018945
 82  -2.32642377167095 -0.0935610325712011
 83  -2.47383197278072 -0.088629342989121
 84  -2.62095995007084 -0.0826531322175709
 85  -2.76771976814914 -0.075585313130854
 86  -2.91403550458166 -0.0673974291952524
 87  -3.05984817377713 -0.0580806844496059
 88  -3.20511967407107 -0.0476462897058178
 89  -3.34983747844228 -0.036125035721262
 90  -3.49402190291046 -0.0235659346623388
 91  -3.63773515392957 -0.0100339795109067
 92   -3.7810931159264 0.00439298591255547
 93  -3.92428252090203 0.0196284329342083
 94  -4.06756587892975 0.0355801790152734
 95  -4.21118389327532 0.052140917922468
 96  -4.35525216210161 0.0691758693926456
 97  -4.49987119231508 0.086536276269411
 98  -4.64517999168679 0.104068951940629
 99  -4.79134008035636 0.121618211933495
100   -4.9385030561397 0.139026338429452
101  -5.08676026017031 0.156133353937898
102  -5.23607368009741 0.172777443142104
103  -5.38619837523969 0.188798683364878
104  -5.53662891334564 0.204049956820043
105  -5.68665085512638 0.218420413570428
106  -5.83560894032845 0.231873973951597
107  -5.98344624397155 0.244496778935294
108  -6.13121568912529 0.256526243913689
109  -6.28035933856428 0.268287836968817
110  -6.43728992601859 0.280580274677885
111  -6.61723806842698 0.295144861729031
112  -6.81374794483091 0.312649850613499
113   -7.0013115447494 0.332282123485374
114   -7.1097977293579 0.345645477825927
115  -7.10999822650601 0.345671856418043
116  -7.44453492168821 0.398410115669663
117  -8.01222597525116 0.559237516265651
118  -8.47487221534894  0.84469145204106
119  -8.79754780512594  1.26964078945296
120  -8.89311135348847  1.78644874577554
121  -8.71097974831067  2.27768677461446
122  -7.88198171100168  2.67515924897711
123  -6.99397442954359  2.40425352108961
124  -6.26242450769908  1.82023073226361
125  -5.56698967299668  1.17633133041291
126  -4.78366443923407 0.640806492452926
127  -3.89582745211168 0.327204541586029
128   -2.9600742064973 0.229048919957377
129  -1.95292466266738 0.189059011855112
130  -1.01029905335686  0.16172183497074
131  -0.0147147755192883 0.792358344480559
132   0.91631544256248 0.799962500146804
133   1.84793972302349 0.804093914339683
134   2.77927844450455 0.823041128329912
135   3.70856433403478 0.894182137626501
136   4.59162296412015  1.19905015625959
137    5.3703970247975  1.72879686113841
138   6.12985439736397  2.38840290846923
139   7.01195466290463   2.9828367827753
140   8.06062485793316  3.21132833424893
141   9.00663168825684  2.70515267102028
142   9.36222345593385   2.1325156826217
143   9.40321874408007  1.46011306741039
144   9.12915093462149 0.844634619420473
145   8.66432235054005 0.359353313991683
146   9.09247587627401 -0.0974741400812356
147    9.5504309737658 -0.670882619653932
148   9.46922475408908 -1.11725879431588
149   9.27111660512808 -1.39438315779179
150   9.07823408452469 -1.57863738477497
151   8.89072915309134 -1.73158766092405
152   8.70039458751971 -1.87322676368264
153   8.50131953079399 -2.00824340217469
154   8.29945279486566  -2.1297788688799
155   8.09716864534046  -2.2356605053923
156   7.89513085649101  -2.3271207219047
157   7.69465064143035 -2.40640370189791
158   7.49646815902092 -2.47634381834218
159   7.30067180106868 -2.53962103534495
160   7.10696811074978 -2.59833850181875
161   6.91492065246624 -2.65392972211685
162    6.7240788132597 -2.70724938017481
163   6.53402781459935  -2.7587301723496
164   6.34440295286125 -2.80853688225907
165   6.15488717807986 -2.85668712380277
166    5.9652008295345 -2.90313017748364
167    5.7750873242662 -2.94778837272216
168   5.58430070836685 -2.99057124020912
169    5.3926540321146 -3.03136509397486
170   5.20012519319119 -3.07001906011796
171   5.00676368620089 -3.10638625945743
172   4.81260019780838 -3.14035876180603
173   4.61765087939605 -3.17187364210474
174   4.42193105745502 -3.20091105877381
175   4.22546226212279 -3.22748998457549
176    4.0282756497222 -3.25166296055975
177   3.83041310639138 -3.27351088530949
178   3.63192551109439 -3.29313834309899
179   3.43287004609849 -3.31066920481121
180    3.2333082542429 -3.32624225870791
181   3.03330320738535 -3.34000698430983
182   2.83291485472616 -3.35211941080483
183    2.6321974007785 -3.36273775714484
184   2.43119705722878 -3.37201811094906
185   2.22994736179067 -3.38011028230902
186   2.02846534496803 -3.38715360304026
187    1.8267543452417 -3.39327268106117
188   1.62480063214508 -3.39857391052493
189   1.42257961418544  -3.4031425778701
190   1.22006684738522 -3.40704154106715
191   1.01725263397338 -3.41031213536842
192  0.814147520239412 -3.41297759647129
193  0.610802516682358 -3.41504806025194
194  0.407283996426475 -3.41652657331342
195  0.203662928972116 -3.41741343396325
196  -8.84500775796169e-07 -3.41770853769095
197  -0.203664623977392  -3.4174119199444
198  -0.407285302959844 -3.41652367555315
199  -0.610803102130984 -3.41504404561363
200  -0.814147102054839 -3.41297287396715
201  -1.01725080408967 -3.41030726289748
202  -1.22006338113914 -3.40703721992893
203  -1.42257446490039 -3.40313964323989
204   -1.6247937990121 -3.39857332264216
205  -1.82674608303588 -3.39327550497761
206  -2.02845610129937 -3.38716099046008
207   -2.2299376897923  -3.3801234525566
208  -2.43118776869361 -3.37203831635286
209  -2.63218954796345 -3.36276624498058
210  -2.83290965787749 -3.35215737974258
211    -3.033302129276 -3.34005552104438
212   -3.2333130101637 -3.32630226248384
213  -3.43288253174318 -3.31074130416157
214  -3.63194779565286 -3.29322279395203
215  -3.83044743946152  -3.2736074524421
216  -4.02832440282817 -3.25177079416896
217  -4.22552785910196 -3.22760749347233
218  -4.42201593901498 -3.20103577912703
219  -4.61775744950863 -3.17200211398936
220  -4.81273071520199 -3.14048642855724
221  -5.00692014928768 -3.10650739053781
222  -5.20030922781657 -3.07012670064773
223  -5.39286670631227 -3.03145106454243
224  -5.58454227543656 -2.99062620315041
225  -5.77535699218608 -2.94780194284541
226  -5.96549659195033 -2.90309105381314
227  -6.15520554885849 -2.85658332650565
228  -6.34473865963718 -2.80835612108335
229  -6.53437344975239 -2.75846036286707
230  -6.72442440538141 -2.70687933758339
231  -6.91525325010736 -2.65345004328401
232  -7.10727138466926 -2.59774273472143
233  -7.30092581982557 -2.53890733824303
234  -7.49664991204431 -2.47551737278793
235  -7.69473597825044 -2.40548016474758
236  -7.89509844561061  -2.3261304750492
237  -8.09700597722775 -2.23465178019456
238  -8.29916158986426  -2.1288154761896
239   -8.5009141224354 -2.00739230676547
240  -8.69986787385111 -1.87254512502548
241  -8.88999972703099 -1.73111529721646
242  -9.07711318902448 -1.57842988743495
243  -9.26937293996164 -1.39456128775914
244  -9.46690883992428 -1.11798830337211
245  -9.54822984560746 -0.671585936011643
246  -9.08852352356929 -0.096280663687509
247   -8.6582053819128 0.360556417639702
248  -9.12580193647387 0.842912001764532
249  -9.40577497762125  1.45579489230035
250  -9.37395339843922  2.12890419546115
251  -9.02637643849799  2.70657164955325
252  -8.09017076906033  3.23035251645485
253  -7.03886862599526  3.01677087126488
254  -6.15362268620491  2.42729217646718
255  -5.39214205198525    1.765717988882
256  -4.61728516068131  1.22811630907806
257  -3.73676913307921 0.913328232829152
258  -2.80741565342914 0.817036085404577
259  -1.87588093907178 0.792398528811053
260  -0.943383526157393 0.759987477231919
