// Id               X                Y
  1  -0.0582664754415418 0.745079269733389
  2   0.90677679826835 0.785327734655885
  3   1.90171574632725 0.899917848739669
  4   2.91708909945899   1.0866788424334
  5   3.89306117297291  1.27837492627521
  6   4.92923842521158  1.37230812243425
  7   5.92411765539673  1.38389095013534
  8   6.86459304452168  1.26453529802566
  9   7.72589634674426  0.91908527884834
 10   8.36213078881924 0.252530438519179
 11   8.45650159786306 -0.683113021488428
 12   8.14140471783451 -1.12267536706965
 13   7.62546353418238 -1.33273872298536
 14   7.07407586089844 -1.21988857079742
 15   6.68777131781569 -0.847910718643017
 16   6.52361530728237 -0.103460402426047
 17    6.3465533970306  0.43829554037259
 18    6.2580648987005 0.554275831488492
 19   6.19448078756529 0.621518055840165
 20   6.12458209341227 0.684617678251466
 21   6.04349915888314 0.746957741200456
 22   5.94807169645057 0.808672544254342
 23   5.83402105709659 0.869397968203308
 24   5.69414820362781 0.928524608550107
 25    5.5145083693149  0.98488342909805
 26   5.29673669123773  1.03023235397042
 27    5.0695139482312    1.056682790904
 28   4.84704321667152  1.06584866872565
 29   4.63912779034562  1.06187189539767
 30   4.45062040276455  1.04940471467555
 31   4.27938253764506    1.031909571988
 32   4.12050129796827  1.01126551667901
 33   3.97046087188702 0.988531370873326
 34   3.82713890069877  0.96441362966283
 35   3.68912478260677  0.93941778850852
 36   3.55539539769709 0.913917769929713
 37   3.42516824705707 0.888197359333519
 38   3.29782456694284 0.862476800819548
 39   3.17286364065421  0.83693042451161
 40   3.04987323265081 0.811698639050437
 41   2.92850935284509 0.786896291552599
 42   2.80848185534376 0.762618626952363
 43   2.68954388479457 0.738945622056182
 44   2.57148396065562 0.715945194402991
 45   2.45411992707379 0.693675616659264
 46   2.33729425836305 0.672187360525695
 47   2.22087037474281 0.651524525051592
 48   2.10472972986475 0.631725958309098
 49   1.98876950263685 0.612826149952699
 50   1.87290077351272 0.594855950072628
 51   1.75704709714863 0.577843153746519
 52   1.64114340365532 0.561812978836439
 53   1.52513517256238 0.546788455696687
 54   1.40897782925062 0.532790740877511
 55   1.29263631478571  0.51983936225668
 56   1.17608477851001 0.507952400101873
 57   1.05930634012432 0.497146607220268
 58  0.942292866162785 0.487437471435823
 59  0.825044706442768 0.478839224898107
 60  0.707570340549343 0.471364806799724
 61  0.589885893178512 0.465025788462929
 62  0.472014489785153 0.459832271918408
 63   0.35398543914059 0.455792774556306
 64  0.235833245252068 0.452914112861675
 65  0.117596465701869 0.451201297541262
 66  -0.000683554661904006 0.450657450605943
 67  -0.118964037316146 0.451283752438658
 68  -0.23720216848028 0.453079423840152
 69  -0.355356497619179 0.456041744758321
 70  -0.473388291317955 0.460166108047339
 71  -0.59126280012153 0.465446103321662
 72  -0.708950400955148 0.471873622938076
 73  -0.826427586049175 0.479438979603651
 74  -0.943677781048944 0.488131023356454
 75  -1.06069198955692 0.497937244956102
 76  -1.17746927724864 0.508843853156888
 77  -1.29401712391624 0.520835814810885
 78  -1.41035168439215 0.533896848930524
 79  -1.52649800796928  0.54800936824289
 80  -1.64249027030622 0.563154363861059
 81  -1.75837207244976   0.5793112300044
 82  -1.87419685978235 0.596457525851572
 83  -1.99002851103539 0.614568670356125
 84  -2.10594214571706 0.633617563037317
 85   -2.2220251991655 0.653574119246341
 86  -2.33837881964544 0.674404702021559
 87  -2.45511965330289 0.696071424064986
 88    -2.572382102368 0.718531281941753
 89  -2.69032117253533 0.741735069216007
 90  -2.80911607113294 0.765625994007913
 91  -2.92897478557102 0.790137896362033
 92  -3.05013997332487 0.815192916925345
 93  -3.17289665082229 0.840698402609689
 94  -3.29758241584141 0.866542733474682
 95   -3.4246013472314 0.892589594615124
 96    -3.554443446202 0.918669957002094
 97  -3.68771286781427 0.944570602433159
 98  -3.82517119122236 0.970017311934045
 99  -3.96780951540173 0.994649633093635
100  -4.11698510131602  1.01798200295762
101  -4.27472604555095  1.03934051171669
102   -4.4444319605686  1.05773301752025
103  -4.63129739000808  1.07143045349982
104   -4.8384397226423  1.07710623037535
105  -5.06130301064329  1.07002655811157
106  -5.28848880467479  1.04608010297284
107  -5.51399821545018  1.00182987064154
108   -5.7009804117425 0.945186839988696
109  -5.84600497821736 0.885136471991008
110  -5.96299033321883 0.823616895575763
111  -6.06035141734552 0.761122312734864
112  -6.14274957688752  0.69802363124411
113  -6.21353772287632 0.634197715755732
114  -6.27765059020926 0.566315000612509
115  -6.36674478776464  0.44901542240559
116  -6.54106460671547 -0.0929120182591273
117   -6.7001241039979 -0.838233859588885
118  -7.08270547006503 -1.21289267054929
119  -7.63046988137319 -1.33299067016654
120  -8.15004124681235 -1.13442010479026
121  -8.47733667085656 -0.703541720550663
122  -8.41371015484925 0.233572697856596
123  -7.79768798495876 0.916210283693698
124  -6.94554521401813   1.2730644929155
125  -6.01319852016168  1.38987520650183
126  -5.05497292848324  1.36460703912282
127  -4.09027755839276  1.26851379366589
128  -3.05183717543211  1.11518811720434
129  -2.03209626189583 0.924386862384173
130  -1.03501285204419 0.783055132695641
131  -0.0511345341238091  1.33981205299414
132    1.0001373307771  1.37999235154899
133    2.0477067613992   1.4906145039244
134   3.09141995767066  1.67387627552734
135   4.15125323805119  1.83326013640704
136   5.22704832329245  1.90830835232311
137   6.31283062270732  1.86142861767604
138   7.38010716670807  1.60376990905778
139   8.32975579035368  1.03004771838584
140   8.92409612108692 0.0854769194494282
141   8.74994098204568 -1.01701907258105
142   8.34167757511734 -1.59152246673298
143    7.6848970010538 -1.83846496087094
144   6.98583667359745 -1.74291351956362
145   6.31035830670028  -1.5387159131028
146   5.80304491738282  -2.1408101655194
147   5.56333259057377 -2.40429723306021
148   5.47210064230382 -2.35014488003056
149   5.34840861578832 -2.27208244041117
150   5.22866866673723 -2.19530534857165
151   5.11701479933007 -2.12429088394386
152   5.01541863512522 -2.06167436874863
153   4.92688472678398 -2.01033307847483
154   4.85733662480737 -1.97390050982056
155   4.81944105678281 -1.95722335081978
156   4.81230141769434  -1.9552252285767
157   4.81048878518332 -1.95487330258785
158   4.80171243623652 -1.95395819551158
159   4.77705075435037 -1.95370619393565
160   4.73209163133211 -1.95556718182842
161   4.66905339461142 -1.96055810177312
162   4.59282010500517  -1.9689005737734
163    4.5068642707171 -1.98040733667766
164   4.41324817600784 -1.99477409592171
165   4.31331027798162 -2.01166024502054
166   4.20799689185976 -2.03071984489089
167   4.09801459668434 -2.05161696213262
168   3.98391078064157 -2.07403295823628
169   3.86612166562309 -2.09766943334486
170   3.74500333176206 -2.12224892910445
171   3.62085282782261 -2.14751453821214
172   3.49392305144027 -2.17322902180221
173   3.36443350780878 -2.19917374101325
174   3.23257823688675 -2.22514755476472
175   3.09853173576929 -2.25096575599046
176   2.96245342376585 -2.27645907744709
177   2.82449102201031 -2.30147277688285
178   2.68478310511864 -2.32586580026032
179   2.54346100637088 -2.34951001582023
180   2.40065020674019 -2.37228950859809
181   2.25647130396054   -2.394099923199
182   2.11104063586923 -2.41484784170036
183   1.96447061928895 -2.43445018323978
184   1.81686985937203 -2.45283361230779
185   1.66834308270101    -2.46993394408
186   1.51899094870381 -2.48569553751934
187    1.3689097962804 -2.50007067045797
188    1.2181913840146 -2.51301889538971
189   1.06692268120436 -2.52450637995884
190   0.91518576181098 -2.53450524161495
191  0.763057843879295 -2.54299289098143
192  0.610611503462818 -2.54995140249674
193  0.457915076019644 -2.55536693325435
194  0.305033241564712 -2.55922921146895
195  0.152027774569553 -2.56153111458835
196  -0.00104157277002639 -2.56226835404308
197  -0.154116094028791 -2.56143927947963
198  -0.307137104194821 -2.55904481041919
199  -0.460044915199792 -2.55508849805982
200  -0.61277785904862 -2.54957671463947
201  -0.765271403890419 -2.54251896253326
202  -0.917457403186884  -2.5339282903996
203  -1.06926350952295 -2.52382179948078
204  -1.22061277235748  -2.5122212201466
205  -1.37142342376625 -2.49915353731862
206  -1.52160883950772 -2.48465164388382
207  -1.67107764662575 -2.46875500356615
208  -1.81973393532159 -2.45151030872087
209  -1.96747752337795 -2.43297212357248
210  -2.11420421642076 -2.41320350887317
211  -2.25980600619655 -2.39227662923488
212  -2.40417115053268  -2.3702733489107
213  -2.54718408104989 -2.34728582535223
214  -2.68872508620864 -2.32341711230849
215  -2.82866971601214 -2.29878178561452
216   -2.9668878488293 -2.27350660537086
217  -3.10324234841901 -2.24773122806192
218  -3.23758721810078 -2.22160898145528
219  -3.36976512618642 -2.19530771364968
220  -3.49960412767006 -2.16901072495744
221  -3.62691333428768 -2.14291778614205
222  -3.75147717592854 -2.11724623658918
223  -3.87304772953744 -2.09223213646923
224  -3.99133432887589 -2.06813140868081
225  -4.10598923650009 -2.04522083121711
226  -4.21658740459625 -2.02379859429376
227  -4.32259691285958 -2.00418385650448
228  -4.42333358342211 -1.98671421814672
229  -4.51788559811704  -1.9717391484108
230  -4.60497187625429 -1.95960606752846
231  -4.68263063485058 -1.95063326695965
232  -4.74751431676801 -1.94504515838403
233  -4.79447460256934 -1.94271777374988
234  -4.82036603051683 -1.94270389375774
235   -4.8293424241055 -1.94345401963538
236   -4.8318591075429 -1.94385874578344
237  -4.83186077897933 -1.94385904324254
238  -4.86387154014961 -1.95752056524455
239  -4.92916237979043 -1.99170447572298
240  -5.01523689199388 -2.04193652760538
241  -5.11504865208628 -2.10411881638891
242  -5.22526708660898 -2.17521348628514
243  -5.34377771401596 -2.25248327063849
244  -5.46642955483126 -2.33138308231287
245   -5.5561999355392 -2.38583444987808
246   -5.8002190532073 -2.12190124148931
247  -6.31362295009574 -1.52446786001523
248   -6.9867845543057 -1.73519425083897
249  -7.68434381293502 -1.83990923347868
250   -8.3454241473381  -1.6056274465826
251   -8.7657433168659 -1.04062987720821
252  -8.97189589037613 0.0557864227248799
253  -8.40309099999808  1.01533737102639
254  -7.46485841970844    1.606556056049
255  -6.40024963393921   1.8696215995605
256  -5.31824160524451  1.91913025141337
257  -4.24821278423946  1.85709444934126
258  -3.19513497986185  1.70358623717679
259  -2.15054970756014  1.51759737286257
260  -1.10331702119797  1.37926143750285
