// Id               X                Y
  1  -0.0760774040785219 0.124172893515567
  2   0.85391460420111 0.140390543314667
  3   1.79796505613172 0.193807827366926
  4   2.73015271145732 0.353110139746244
  5   3.62740552098614 0.639240051153705
  6   4.48279506121182  1.01722190008056
  7   5.32405743237561   1.4183026386273
  8   6.19425648676047  1.71368479602688
  9    7.0965451596072  1.75693591768364
 10   7.92428273421319  1.42531089978807
 11   8.46937709604357 0.718516002363582
 12   8.56606846624839 0.218752685369516
 13   8.45321190803383 -0.343817684690502
 14   7.99567275200835 -0.852737714617201
 15   7.27483324074533 -0.819718085472267
 16   7.59980722198773 0.0136779494976532
 17   7.56531531013227 0.274278459068334
 18   7.44396711750351 0.445051962834745
 19   7.28735042970873 0.558243976588939
 20   7.11729179526209 0.633214152919025
 21   6.94713449781687 0.683230258460782
 22   6.77843540365114 0.717664618742457
 23   6.61109663802987 0.741064871097115
 24   6.44494874004601 0.755558818635382
 25   6.27993833117706 0.762110660223643
 26   6.11611756475488 0.761129400059771
 27   5.95361183468708 0.752795620825149
 28   5.79259653885348 0.737275177862608
 29   5.63331753059831 0.714896631386251
 30   5.47625850196316 0.686336687483206
 31   5.32116748371221 0.652520240134139
 32   5.16770442907506 0.614546299297241
 33   5.01563968320132 0.573558120898316
 34   4.86469889320072 0.530583494801011
 35    4.7145878455443 0.486475508042588
 36   4.56502896155725 0.441914955546859
 37   4.41578129462795 0.397441170524524
 38   4.26664587052201 0.353490320821252
 39   4.11746373712812 0.310430198611141
 40   3.96811183963011 0.268585421787754
 41    3.8184986774209 0.228249703681215
 42   3.66856001965623  0.18968522169672
 43   3.51825483611517 0.153113304109514
 44   3.36756187090673 0.118703461440577
 45   3.21647697241121 0.0865671832288411
 46   3.06501066985101 0.0567593934203897
 47   2.91318537344136 0.0292865019750022
 48   2.76103207321443 0.00411771695585757
 49   2.60858693551683 -0.0188039021996414
 50   2.45588831184452 -0.0395530486705258
 51   2.30297444379935 -0.0582173412144994
 52   2.14988185619223 -0.0748956824821967
 53    1.9966442734058 -0.0896985116981036
 54   1.84329189541506 -0.102748200460165
 55   1.68985094855209 -0.114177896898291
 56   1.53634349094237 -0.124127748068364
 57   1.38278746355111 -0.132738506927226
 58   1.22919695386507 -0.140143678111169
 59   1.07558261826637 -0.146462056255193
 60  0.921952206202417 -0.15179242113383
 61  0.768311134267692 -0.156211363774737
 62  0.614663060635459 -0.159774179159583
 63  0.461010411948663 -0.162517965457425
 64  0.307354823295823 -0.164465756506895
 65  0.153697469773453 -0.16563062283218
 66  3.92910898670953e-05 -0.166018992507827
 67  -0.153618867899974 -0.165632767899849
 68  -0.307276162516112 -0.164470047764721
 69  -0.460931653565469 -0.162524403733342
 70  -0.614584166775907  -0.1597827622799
 71  -0.768232068135861 -0.156222082877163
 72  -0.921872932247424 -0.151805256575812
 73  -1.07550310224454 -0.146476974002416
 74  -1.22911716279925 -0.140160627721397
 75  -1.38270736563678 -0.132757422209796
 76  -1.53626305550667 -0.124148551045562
 77  -1.68977014620034 -0.114200504823604
 78  -1.84321069843558 -0.102772534543495
 79  -1.99656265626344 -0.089724505046034
 80  -2.14979979543737 -0.0749232835246287
 81  -2.30289191589549 -0.0582465071649295
 82  -2.45580528631318 -0.039583720939485
 83  -2.60850335966645 -0.0188359523221005
 84  -2.76094784418935 0.00408458503099097
 85  -2.91310029447712 0.0292529065597764
 86  -3.06492439159073 0.0567264916432986
 87  -3.21638892680842 0.086536934864946
 88  -3.36747121139863 0.118678895462362
 89  -3.51816039715565 0.153098713072946
 90  -3.66846029750111 0.189686200199468
 91  -3.81839181921721 0.228272984795425
 92  -3.96799562532807 0.268638553763854
 93  -4.11733555359881 0.310521203214503
 94  -4.26650269073051 0.353627515466878
 95  -4.41561966847682 0.397633282888292
 96  -4.56484501328236 0.442171550015961
 97  -4.71437728802745 0.486807650184033
 98  -4.86445712370649 0.531004530670157
 99  -5.01536209027391 0.574084397784664
100  -5.16738703190598 0.615197521684543
101  -5.32080773903793 0.653318909071378
102  -5.47585498824777 0.687305879418185
103  -5.63286166222204 0.716055435304108
104  -5.79209898153804 0.738638974600546
105  -5.95308329398627 0.754371150772443
106  -6.11556679941296 0.762917244531505
107  -6.27937406433035 0.764108131189096
108  -6.44437997892211 0.757761959035093
109  -6.61053290676412 0.743469628942781
110   -6.7778872739847 0.720267331868464
111  -6.94661468034683 0.686027735719288
112  -7.11681724915852 0.636203666933216
113     -7.28694573009 0.561423174073587
114  -7.44366529015987 0.448415283983023
115  -7.56518169842783 0.277821169226231
116  -7.59999997109681 0.0172914427382826
117  -7.27610284567939 -0.816369881259615
118  -7.99703152667429 -0.84991709179456
119  -8.45702613311436 -0.343064732850271
120  -8.57498702162935 0.219235761836769
121  -8.48434762334886 0.720149476089016
122  -7.95008647148312  1.43488733334584
123  -7.12809525887748  1.77728823907132
124  -6.22829845541542   1.7410864356636
125  -5.36306378274954  1.44757669027083
126  -4.53244273694342  1.04502683264717
127   -3.6917775297843 0.661914552787688
128  -2.81352611372549 0.367641920352524
129  -1.90342534450824 0.195451653072094
130  -0.990336622206508 0.114230548984136
131  -0.0168023094846538 0.708133325924336
132  0.901958038916605 0.731464101025892
133   1.81738054908311 0.803576749547665
134   2.72239499990506 0.968565392414375
135   3.60589749402192  1.25566190145929
136   4.48386370185866  1.63216679072439
137   5.46633225168635  2.02021904355517
138   6.53478465099176   2.2315839423642
139   7.63439731600288   2.0648594762113
140   8.54029895605711  1.38739504580424
141   8.88368289811375 0.293680115192401
142   8.67018943674086 -0.409508321109024
143   8.14444102412154 -0.943460995040101
144    7.4374573736696 -1.23786951021766
145   6.70669374132981 -1.48808605529126
146   5.96813819715086 -1.99102435402305
147    5.8149776821368 -2.06866818008935
148   5.80136520406849 -2.07483204817569
149   5.78702116505707 -2.08121698886567
150    5.7671815010297 -2.08988659688551
151   5.73924152269108 -2.10183758248007
152   5.70381324307161 -2.11665352614521
153   5.66200333681237 -2.13376970527233
154   5.61456345917328 -2.15282705040068
155   5.56179482304997 -2.17368070370284
156   5.50361720849869 -2.19634494544309
157    5.4396056915843  -2.2209585501545
158   5.36884818764268 -2.24782395381857
159   5.28903681880433 -2.27773386179757
160    5.1922022378821 -2.31350751940473
161   5.08217115823115 -2.35352875635623
162   4.96508338019551 -2.39545794230714
163   4.84299894573808 -2.43850961090249
164    4.7170933120143 -2.48218823963238
165   4.58816411640152  -2.5260677995025
166   4.45676655028809 -2.56974526849085
167   4.32328397037486  -2.6128403495101
168    4.1879784336188 -2.65500958460071
169   4.05102772790694 -2.69596195606765
170   3.91255255967972 -2.73546886890545
171   3.77263812843126 -2.77336461999526
172   3.63135241950036 -2.80953716649172
173   3.48876027623627 -2.84391303232045
174   3.34493103886144 -2.87644238861058
175   3.19993950724066 -2.90708927256293
176   3.05386281070337 -2.93582854705361
177   2.90677663319921 -2.96264792899607
178   2.75875293117392 -2.98755189934318
179   2.60985945593115 -3.01056461909827
180    2.4601603676339 -3.03173020815969
181   2.30971713679627 -3.05111002198815
182   2.15858926761659 -3.06877750031169
183   2.00683469943282 -3.08481175194569
184   1.85450989911066 -3.09929134419138
185   1.70166970426916 -3.11228974229412
186    1.5483670101437 -3.12387338385396
187   1.39465244121248 -3.13410248987045
188    1.2405741673053 -3.14303370584875
189   1.08617796313631 -3.15072302346404
190   0.93150749112206  -3.1572275046141
191    0.7766046932771  -3.1626050382121
192  0.621510169615928 -3.16691226007366
193  0.466263480587485 -3.17020138680172
194  0.310903377932703 -3.17251685885169
195  0.155468000171379 -3.17389246512969
196  -4.93448028779844e-06 -3.17434927581246
197  -0.155477923197886 -3.17389444140624
198  -0.310913463447059 -3.17252080397157
199  -0.466273837877904 -3.17020728601951
200  -0.621520909404911 -3.16692009157599
201  -0.77661592828469 -3.16261477340229
202  -0.931519336633772  -3.1572391081196
203  -1.08619053758033  -3.1507364521583
204  -1.24058759281896 -3.14304890571884
205  -1.39466684412666 -3.13411938919696
206  -1.54838252123425 -3.12389188105904
207  -1.70168645853721 -3.11230968697528
208  -1.85452803482687 -3.09931251013702
209  -2.00685435634022 -3.08483380117745
210  -2.15861058466257   -3.068799937594
211  -2.30974025060084 -3.05113214041247
212  -2.46018541394388 -3.03175102913085
213  -2.60988657705415 -3.01058283462673
214  -2.75878229178564 -2.98756583011111
215  -2.90680844346625 -2.96265551563666
216  -3.05389734846625 -2.93582739003983
217  -3.19997712238917 -2.90707672283092
218  -3.34497212129018 -2.87641566409139
219  -3.48880518580079 -2.84386930155575
220  -3.63140141484974 -2.80947351999602
221   -3.7726913681272 -2.77327787071392
222  -3.91261024103544 -2.73535519593765
223  -4.05109036308295 -2.69581649975728
224  -4.18804719578673 -2.65482615174273
225  -4.32336105361091 -2.61261135062222
226  -4.45685557335299 -2.56946190907997
227  -4.58827067798016 -2.52572045286758
228  -4.71722581329554  -2.4817668760206
229  -4.84316978524857 -2.43800410535014
230  -4.96531088092511 -2.39485790784197
231  -5.08248447718546 -2.35282183090869
232  -5.19266417629169 -2.31267071176565
233  -5.28988123108904 -2.27668399164404
234  -5.36992960244216 -2.24662179496647
235  -5.44084179877748 -2.21963803274116
236    -5.504977976477  -2.1949199046548
237  -5.56326188044966 -2.17216081297698
238  -5.61612225003401 -2.15122095554954
239  -5.66364118686739 -2.13208584218918
240  -5.70551878280704 -2.11490052689359
241  -5.74100465923362  -2.1000246271563
242  -5.76899404577711 -2.08802359708406
243  -5.78887797513241 -2.07931335601112
244  -5.80326583624624 -2.07289347163094
245  -5.81692338524359 -2.06669352115895
246  -5.97005131013176 -1.98887589280957
247  -6.70820250520806 -1.48516121609086
248   -7.4388078496313 -1.23485416897073
249  -8.14607518761356 -0.941407263764943
250  -8.67430117441046 -0.409956210855139
251  -8.89397448634781 0.291307650313559
252  -8.56524725619116   1.3894717901176
253  -7.66877434434398   2.0796256932699
254   -6.5704517037434  2.25762393284481
255   -5.5002223590495   2.0504360726009
256  -4.51634024623608  1.65947274959009
257  -3.63807581702667  1.27609542915981
258  -2.75571157416218 0.979501747228748
259  -1.85048248069273 0.800463079772343
260  -0.933429859283826 0.718265331926001
