// Id               X                Y
  1  -0.490165018171087  9.28366060319663
  2  0.554048704809866  9.25872074530378
  3   1.59244112033891  9.07883391021722
  4   2.60378688292663   8.7369812853068
  5   3.54204031906987  8.22794839719407
  6    4.4154563600433  7.58966709660916
  7   5.21208283016684  6.87085511077543
  8   5.99447920708615  6.14058211614037
  9   6.74605863392637  5.38521721010087
 10   7.38522315475238  4.53305747773898
 11   7.68159525831052  3.48340422023018
 12   7.39400639652479  2.86898872749947
 13   6.87670849921739  2.61269570413757
 14   6.37343708181467  2.73353522291239
 15   6.06397721174137  3.11270942356878
 16   6.05389086110227   3.8711597644499
 17   6.05132198781077  4.14853968277327
 18   6.03745023728808  4.38359956747962
 19   6.01861061671791  4.54944876534652
 20   5.99343301442207  4.70535015819053
 21   5.96169547077027  4.85651404323389
 22    5.9233347532475  5.00390760941659
 23   5.87856294450096  5.14797410684263
 24   5.82735343663818   5.2890766412612
 25   5.76999050915933  5.42768780175286
 26   5.70646747458756  5.56410650842068
 27    5.6371241216983  5.69868651820454
 28   5.56204701229728  5.83156037724243
 29   5.48158938255911  5.96291883878355
 30   5.39593254947544   6.0927947987455
 31   5.30537796719844  6.22125679036802
 32   5.21013278982939  6.34829087226899
 33   5.11043144522949  6.47389534431425
 34   5.00644546641576   6.5980226257815
 35   4.89833827496383  6.72062514127713
 36   4.78623332802755  6.84163094170837
 37   4.67023016310188   6.9609561463513
 38   4.55040560996702  7.07850457368002
 39   4.42681633060301  7.19416772278838
 40   4.29950203549385  7.30782502112631
 41   4.16849200889227  7.41934795716633
 42   4.03380517949476  7.52859732467531
 43   3.89545503036612  7.63542601238396
 44   3.75345228976313   7.7396796619023
 45   3.60780648433683  7.84119593193431
 46    3.4585292243878  7.93980624986918
 47   3.30563584686795  8.03533547627635
 48   3.14914757258642  8.12760224752524
 49   2.98909381928042  8.21641959585818
 50   2.82551419648364  8.30159497884764
 51   2.65846091968643  8.38293093056135
 52   2.48800119844537  8.46022566157134
 53   2.31421970109031  8.53327394242649
 54   2.13722099049238  8.60186841777284
 55   1.95713167173381  8.66580128650525
 56   1.77410205427303  8.72486649794791
 57   1.58830705438966  8.77886239573838
 58   1.39994615301301  8.82759471789892
 59   1.20924235109304  8.87087978944915
 60   1.01644021770162  8.90854768621321
 61  0.821803263216489  8.94044516706373
 62  0.625610933421874  8.96643821622181
 63  0.428155507328226  8.98641411147373
 64   0.22973911072501  9.00028300582107
 65  0.0306709640690899  9.00797906048157
 66  -0.168735102935767  9.00946119214958
 67  -0.368162902031726  9.00471349907839
 68  -0.567295974569043  8.99374541634859
 69  -0.765819610042004  8.97659162772827
 70  -0.963422894359273  8.95331173474745
 71  -1.15980088184078  8.92398965697799
 72  -1.35465696611661  8.88873271458207
 73  -1.54770548804021  8.84767033010355
 74  -1.73867455868434  8.80095228841994
 75   -1.9273089931297  8.74874651852462
 76  -2.11337315870927  8.69123641211526
 77  -2.29665346758678  8.62861776821975
 78  -2.47696022029971   8.5610955242965
 79  -2.65412856298283  8.48888049166811
 80  -2.82801844675498   8.4121863190708
 81  -2.99851362510478  8.33122684390683
 82  -3.16551988593967  8.24621397245583
 83  -3.32896274165612  8.15735604465555
 84  -3.48878483668769  8.06485665790343
 85  -3.64494333585938  7.96891396225521
 86  -3.79740721404376  7.86971998387524
 87  -3.94615484307449  7.76746045437065
 88  -4.09117156553798  7.66231453451041
 89  -4.23244707159177  7.55445424462622
 90  -4.36997359438219  7.44404497152169
 91  -4.50374272933915  7.33124422133721
 92  -4.63374303307019  7.21620157983918
 93  -4.75995796311562  7.09905906624089
 94  -4.88236065207863   6.9799482386004
 95  -5.00091262695836  6.85899185818151
 96  -5.11555950100391   6.7363023403641
 97  -5.22622435140739  6.61197842881555
 98  -5.33280851530124  6.48610856215592
 99  -5.43518463095954  6.35876660281455
100  -5.53319191317153  6.23000929153758
101   -5.6266416169081  6.09987976253923
102  -5.71531195740319  5.96840008126297
103  -5.79895099494277  5.83556685607639
104  -5.87729293359598  5.70134997822883
105  -5.95006204122047  5.56567714593109
106   -6.0169842899067    5.428418918197
107    -6.077811592726  5.28937644701526
108  -6.13232408971715  5.14826195864637
109  -6.18032410909124  5.00469495652596
110   -6.2216376483109  4.85823371910094
111   -6.2560958920157  4.70843079787288
112  -6.28352536152156  4.55482014026286
113  -6.30380666768581  4.39632538115754
114  -6.31693564010746  4.22709960426505
115  -6.32155188071254  3.98953122084159
116  -6.31172522026072  3.71178741944784
117  -6.27736152672108  2.95325688106563
118  -6.54925001265022  2.54848901503003
119  -7.03120997864875    2.373826604892
120  -7.54855148463805  2.54804582728896
121  -7.90159898653817  3.09031424150383
122  -7.73028077277195  4.13210167937104
123  -7.22270722466618  4.95855562297744
124  -6.58204415602721    5.692801497808
125  -5.87119147665511  6.41777896585953
126  -5.13442366048387  7.14262657088132
127  -4.34023201647624  7.83442282439233
128  -3.46250498861655  8.42599421818411
129  -2.49793052570725  8.86036170396122
130  -1.49914680379921  9.12029950182972
131  -0.155598908422671  9.76871408486284
132  0.962906283799005  9.70496771419083
133   2.05667750362779  9.46233318787194
134   3.09953695267356   9.0537870703063
135   4.06770458706071  8.49309611684944
136   4.95752140155028  7.81771233915986
137   5.78660315453559  7.07121409304106
138   6.58659841203273  6.29322128120582
139   7.34773811547392  5.47452275894397
140   7.96717320417676  4.54334987063847
141   8.11767735991589  3.44087427698874
142   7.88300302420988  2.76754182240645
143   7.30206638908277  2.33504176907915
144    6.5702425089835  2.26210101357377
145   5.83733248123909  2.37037416842062
146   5.14137579867179  2.03830060646402
147   4.98407695039552  2.03502390550435
148    4.8358437033548  2.06213405614254
149   4.69542211341891  2.11522865621194
150   4.56577153745164  2.18810661148726
151   4.44705141736593  2.27582178556653
152   4.33858642681708  2.37470895410606
153   4.23929670865918  2.48198139097039
154   4.14786389699771  2.59540762993851
155   4.06283135755851  2.71314337937548
156   3.98269950810644  2.83366333544074
157   3.90602379413737  2.95572543059627
158   3.83149177053174  3.07833871492686
159    3.7579729167074   3.2007251543923
160   3.68453648396811  3.32228151874214
161   3.61044775235531  3.44254357443298
162   3.53514884999631  3.56115619527617
163   3.45823316317959  3.67784872398042
164   3.37941755523394  3.79241548041339
165   3.29851623881308  3.90470008594811
166   3.21541753667218  4.01458298471491
167    3.1300644325313   4.1219713417975
168   3.04243884194012  4.22679087918459
169   2.95254933623009  4.32897928907629
170    2.8604218840065  4.42848096220965
171   2.76609312356908  4.52524283129377
172   2.66960567791423  4.61921117754733
173     2.571005104375  4.71032925097257
174   2.47033809233349  4.79853558897447
175   2.36765160199648  4.88376292223473
176   2.26299269506842  4.96593756780944
177   2.15640884442329  5.04497923119234
178   2.04794856390911    5.120801146982
179   1.93766223038945  5.19331050185479
180   1.82560299769363  5.26240909626437
181   1.71182772584249  5.32799420944058
182    1.5963978647757  5.38995963871747
183   1.47938024905514  5.44819688537331
184   1.36084777450615  5.50259645763568
185   1.24087994145568  5.55304925842614
186   1.11956326143337  5.59944802238301
187  0.996991531641488  5.64168876632508
188  0.873265982103984  5.67967222044971
189  0.748495293641671  5.71330521329511
190  0.622795474191548  5.74250198931253
191  0.496289572502646  5.76718544126584
192  0.369107207092641  5.78728823983017
193  0.241383896105706  5.80275384093138
194  0.113260187918785  5.81353734971412
195  -0.0151193913945693  5.81960622021056
196  -0.143607543168401  5.82094077227487
197  -0.272055512580114  5.81753451166149
198  -0.400314468570034   5.8093942444242
199  -0.528236896135331  5.79653998242114
200  -0.655677949161009  5.77900464228221
201  -0.782496713364949  5.75683354562539
202  -0.908557332711964  5.73008373351249
203  -1.03372995949004  5.69882311282124
204  -1.15789149883799  5.66312945578118
205  -1.28092613278894  5.62308927562557
206  -1.40272562517967  5.57879660071936
207  -1.52318942357951  5.53035166713597
208  -1.64222458343661  5.47785954716599
209  -1.75974554017892  5.42142873088875
210  -1.87567374796857   5.3611696811094
211  -1.98993719387913  5.29719338797735
212  -2.10246978946305  5.22960995595934
213  -2.21321064171806  5.15852725997606
214   -2.3221032130883  5.08404970811491
215  -2.42909439330142  5.00627714646136
216  -2.53413352148623  4.92530393945703
217  -2.63717141580311  4.84121825840067
218  -2.73815948625291   4.7541016146417
219   -2.8370490298736  4.66402868030213
220  -2.93379083930793  4.57106744779683
221  -3.02833528587303  4.47527979308231
222  -3.12063308845152  4.37672251598436
223  -3.21063702541449  4.27544894757233
224  -3.29830489963246  4.17151122687812
225  -3.38360415138939  4.06496334793611
226  -3.46651854769817   3.9558651082328
227  -3.54705743751649  3.84428710038112
228  -3.62526810812991  3.73031690927757
229  -3.70125169339585  3.61406676334906
230  -3.77518299131722  3.49568295380619
231  -3.84733424135035  3.37535748563304
232  -3.91810226153687  3.25334266394413
233  -3.98803743502012  3.12996948973102
234  -4.05787149526604  3.00567091819073
235  -4.12853891481492  2.88101093404525
236  -4.20118451940691  2.75671950239976
237  -4.27714845768693  2.63373169697235
238  -4.35792099757424  2.51322709677105
239  -4.44506654463699  2.39666564657516
240  -4.54012821459622  2.28582533590928
241   -4.6445321632287  2.18287200700791
242  -4.75949421316982  2.09052548829469
243  -4.88586634615662  2.01238676221626
244  -5.02371143522388  1.95336671232153
245  -5.17048046098338  1.91972373656587
246  -5.32770904685478  1.91584284517746
247  -6.03799165928642  2.21469676393569
248  -6.76920303296738  2.07954597677051
249   -7.5049901753119  2.15860284190412
250  -8.07077873543852  2.62452058789966
251  -8.32052022879301  3.30689442910724
252  -8.22883334767204  4.42730441518165
253  -7.63526213169308  5.37662597507184
254  -6.88149453688191  6.20377598427133
255  -6.08114979620638  6.98613950150986
256  -5.25120545979885  7.73872626703659
257  -4.37000483409462  8.43352548802473
258  -3.40785768806035  9.01213359207075
259  -2.36671380266265  9.43105563913645
260  -1.26996544056389  9.66533001991386
