// Id               X                Y
  1  -0.0382305933521886 -0.238292032796183
  2  0.829927913279038 -0.186469945550517
  3   1.67702461833546 0.0313210703004095
  4   2.62288677267037 0.547400376226859
  5   3.43545346490808 0.864234711328706
  6   4.20264491828056  1.29937046011277
  7   4.95809729661756  1.74537919593516
  8   5.74436880284461  2.12055692729445
  9   6.57938450133982   2.3566087063601
 10    7.4443048849318  2.37423405163621
 11   8.28197467080775  2.12909357426734
 12   8.66021162092883  1.84280395882736
 13   8.92735225106608  1.40340957954619
 14   8.87685050315533 0.858100507172552
 15   8.44146648384372 0.566783099331169
 16   7.63631510871554  1.02086381494776
 17   6.91374573352781  1.57237353239861
 18   6.44987103035985  1.53536348701772
 19   6.22990498657538   1.4352256635025
 20   6.07848912623988  1.33833106790623
 21   5.90849170338134  1.20855584253559
 22   5.77423414613434  1.10005428835564
 23   5.65576804949995  1.00535396089856
 24   5.53691896086933 0.914478843459328
 25   5.41605567822868 0.828047600492837
 26   5.29151078881393 0.746003230082824
 27   5.16293355788044 0.668859542818647
 28   5.03089537693123 0.597405227337387
 29    4.8961618823803 0.532266752413137
 30   4.75930220244439 0.473770526639848
 31    4.6208741882493 0.422079428971864
 32   4.48125103936076 0.377142074269089
 33   4.34082659349548 0.338792319704494
 34   4.19992105192204 0.306737230242547
 35   4.05881729409724 0.280600881806123
 36   3.91774264370457 0.259953143785423
 37   3.77688166139471 0.244341862528028
 38   3.63641216984526 0.233316509442015
 39   3.49645663611729 0.226435241435131
 40   3.35698095939724 0.223274304390885
 41   3.21792020382985 0.223444443760358
 42   3.07926594483234 0.226586671708397
 43   2.94104490099907 0.232362520323899
 44    2.8033036849844  0.24044787809305
 45   2.66610234905547 0.250529336931055
 46    2.5295094842955 0.262302705216103
 47   2.39359726576936 0.275473373743736
 48   2.25843727831416 0.289757786410423
 49   2.12409751627391 0.304885166575622
 50   1.99064060543103 0.320598824910977
 51   1.85812299500735 0.336656700253854
 52    1.7265948650599 0.352831091570949
 53    1.5961005490095  0.36890776026156
 54   1.46667935234299 0.384684694781622
 55   1.33836662165519 0.399970868039717
 56   1.21119471045608 0.414585322642829
 57   1.08519306801883 0.428356910029826
 58  0.960386220277368 0.441124954382873
 59  0.836788363342538 0.452740938673419
 60  0.714394141889426 0.463070984495962
 61  0.593166875552031 0.471998527548985
 62  0.473027119630862 0.479426408026595
 63   0.35384491920594 0.485277763095829
 64  0.235438199452998 0.489495559136097
 65  0.117578123045636 0.492041098682446
 66  7.59040219202321e-07 0.492892165727757
 67  -0.117576593968925 0.492041540605334
 68  -0.235436639258364 0.489496436845912
 69  -0.353843313203948 0.485279064152566
 70  -0.47302546159025 0.479428113315767
 71  -0.593165169857322 0.472000610639883
 72  -0.714392404559137 0.463073410647755
 73  -0.836786621773046 0.452743663454667
 74  -0.960384511815674 0.441127922027935
 75  -1.08519143777034 0.428360051957583
 76  -1.21119320897663 0.414588556992385
 77  -1.33836530327232  0.39997410151063
 78  -1.46667827478945 0.384687828261208
 79  -1.59609977492324 0.368910699357817
 80  -1.72659446567662 0.352833761955537
 81  -1.85812305600187 0.336659065575818
 82  -1.99064123412016 0.320600902249936
 83  -2.12409884851483 0.304887031661452
 84  -2.25843948202341 0.289759559341748
 85  -2.39360053727275 0.275475176852649
 86  -2.52951403192469  0.26230458929508
 87  -2.66610836032915 0.250531179869324
 88  -2.80331127207701  0.24044927075581
 89  -2.94105403639727 0.232362663986353
 90  -3.07927641217359 0.226584319998752
 91  -3.21793164590533 0.223437926210716
 92  -3.35699302997972 0.223261676271117
 93  -3.49646945265073 0.226414602535337
 94  -3.63642673991418  0.23328652736778
 95  -3.77689978153571 0.244302449642013
 96  -3.91776413082815 0.259905867374803
 97  -4.05883777675973 0.280548848257204
 98  -4.19993377683707  0.30668486378667
 99  -4.34082748197716 0.338745445369661
100  -4.48124630832974 0.377109036202179
101  -4.62086273608729 0.422064949182936
102  -4.75929310748933 0.473779481789078
103  -4.89614031634491 0.532289848802754
104  -5.03088051492554  0.59744334764887
105  -5.16294242077336 0.668911796417939
106  -5.29157695994081 0.746080347426832
107  -5.41614600604014 0.828121496800589
108  -5.53692602648273 0.914465149534891
109  -5.65571025926898  1.00525950987178
110  -5.77422224288827  1.09997342427276
111  -5.90851055530468  1.20848758874914
112  -6.07835330741949  1.33814889254028
113  -6.23021301844693  1.43533133589095
114  -6.44942688215797   1.5351216868226
115   -6.9135962661487  1.57233183629007
116  -7.63622271526645  1.02084155116242
117  -8.44138091629915 0.566758720235591
118  -8.87675641343092 0.858073618341754
119   -8.9272505252632  1.40336809139664
120  -8.66011715082253  1.84275055676522
121  -8.28188331395116  2.12904202823579
122  -7.44422337462813  2.37418712970312
123  -6.57934289263754  2.35651128239691
124  -5.74455631973403  2.12084364262164
125  -4.95914666050148  1.74826831518318
126  -4.21156504318134  1.30940998509274
127  -3.48624777706171 0.882145090755114
128  -2.75676584456391  0.53681648078017
129  -1.92547190026607 0.0160712453628589
130  -0.935556425973539 -0.195543293136715
131  -0.00939415021198931 0.346846017395386
132   0.85835038236914 0.427064097765406
133   1.69510194069617  0.65865801755315
134   2.54066865349521  1.09222188034176
135   3.31974586483136  1.47424088162371
136   4.10114302246286  1.91188470942705
137   4.90254242728003  2.35956836804493
138   5.76604868582957  2.73363636400456
139   6.77495012681771  2.94211788807402
140   7.84225253126371  2.81393172394936
141   8.74183152014735  2.21925988057108
142   9.08427111291789  1.62479422535674
143   9.21242618149863  1.02638312897852
144   9.24590139335139 0.576778985740922
145   9.27601520589239  0.19299920102313
146   9.44267505633064 -0.489748551542643
147   9.66572080586494 -1.87317307855359
148   9.66570949678098  -1.8731927848402
149   9.56016448908229 -2.02422985768296
150   9.30749148432216 -2.26328436377313
151   9.18050197705398 -2.36101770968141
152   9.03948207201778  -2.4599373477884
153   8.89060984951094 -2.55823688214509
154   8.74063869306686 -2.65384160818339
155   8.58327483832859 -2.75200402269029
156   8.41937471132801 -2.85234901762255
157   8.25149131795826 -2.95270150605721
158   8.08078527662285 -3.05127066813424
159   7.90729201974458 -3.14678202223818
160    7.7308181855558 -3.23819295746451
161   7.55102954063527 -3.32479411355523
162   7.36784113039991 -3.40608191236752
163   7.18111141647879 -3.48191045009936
164   6.99077142361848 -3.55237491900066
165   6.79671578425987 -3.61777800106633
166   6.59892571591682 -3.67850434247171
167   6.39743597955811   -3.734965073622
168   6.19234216174265 -3.78753866281911
169   5.98384655789287 -3.83652129602893
170   5.77241624609469 -3.88208020516339
171   5.55858687475484 -3.92431107884419
172   5.34280429911141 -3.96328453561356
173   5.12542194964935 -3.99906357155866
174   4.90672851190723 -4.03171891430433
175   4.68696618812419 -4.06134315654042
176   4.46634276899316 -4.08805867604198
177   4.24503793823287 -4.11201846719853
178   4.02320718445818 -4.13340102109461
179   3.80098396973663 -4.15240186448466
180   3.57848112963586 -4.16922427291297
181   3.35579163155952 -4.18407104917293
182   3.13298880011516 -4.19713830430971
183   2.91012591381477 -4.20861134883634
184   2.68723518380637 -4.21866224081553
185   2.46432631645917 -4.22744831635857
186   2.24138528871596 -4.23511108514373
187   2.01837451948549  -4.2417751107514
188   1.79523605461612 -4.24754680314372
189   1.57189915285594 -4.25251333766779
190   1.34829234982999  -4.2567421081013
191   1.12435802391877 -4.26028116497071
192  0.900065924790782 -4.26316095906604
193   0.67542217853211 -4.26539742906288
194  0.450471850869448 -4.26699611972297
195  0.225295090784038 -4.26795669800914
196  -1.82114387789032e-06  -4.2682770462573
197  -0.225298742777223 -4.26795611947041
198  -0.450475530820958 -4.26699497064843
199  -0.675425901314061 -4.26539572538189
200  -0.900069699971594 -4.26315872452502
201  -1.12436185439547 -4.26027843108115
202  -1.34829623130366 -4.25673891424825
203  -1.57190307438364 -4.25250973146717
204  -1.79524000026976 -4.24754284106352
205  -2.01837847085647 -4.24177085891722
206  -2.24138922775297 -4.23510662017688
207  -2.46433022810849 -4.22744372614999
208  -2.68723905804411 -4.21865762537766
209  -2.91012974686896 -4.20860682182056
210  -3.13299259465214 -4.19713399622121
211  -3.35579539577487 -4.18406711342863
212  -3.57848487487733 -4.16922089515914
213  -3.80098770728188 -4.15239927348128
214  -4.02321092096211 -4.13339949607518
215  -4.24504167334375 -4.11201833198647
216  -4.46634649304383 -4.08806026698477
217  -4.68696989348362 -4.06134674886842
218  -4.90673220970779 -4.03172459836506
219  -5.12542575429921 -3.99907107251019
220  -5.34280857891457 -3.96329299436596
221   -5.5585928179915 -3.92431876903986
222  -5.77242693865282 -3.88208418957718
223  -5.98386930295627 -3.83651686497733
224  -6.19239129892789 -3.78751860480652
225  -6.39753692730064 -3.73491841010498
226   -6.5991134063729 -3.67841608338426
227   -6.7970215745117 -3.61763241585822
228  -6.99119138040622  -3.5521669246467
229  -7.18159220623545 -3.48165559334678
230  -7.36828816277009 -3.40582033436761
231  -7.55137292546956 -3.32456672248648
232   -7.7310115019634 -3.23803779468275
233  -7.90734151831592 -3.14671320569501
234  -8.08066331849829 -3.05131802684288
235  -8.25118656683939 -2.95288231897358
236  -8.41893485707351  -2.8526386376463
237  -8.58293285493703 -2.75225513333292
238  -8.74067967323875 -2.65386421586097
239  -8.89092663400758 -2.55808049495818
240  -9.03975672198121 -2.45979092227582
241  -9.18064163135588 -2.36094012325229
242   -9.3076754604499  -2.2631424333545
243   -9.5585677915886 -2.02590574107662
244   -9.6655651510192  -1.8731354482289
245  -9.66556665684662 -1.87313282416516
246  -9.44259990470636 -0.489838788900736
247  -9.27593613982598 0.192980562130536
248  -9.24582930041964 0.576772607563704
249  -9.21235417322078  1.02637283833078
250  -9.08419510069038  1.62474781335859
251  -8.74174950284309  2.21920225045894
252  -7.84217697671463  2.81380466906854
253  -6.77497031675877  2.94187130048224
254  -5.76595916746262  2.73414912145903
255  -4.90084139343603  2.36284573806317
256  -4.09940873724562  1.91768681181542
257  -3.32581078097553   1.4682380687984
258  -2.55346679917385  1.04972335398391
259  -1.74756672216884 0.617816194480389
260  -0.887938544483252 0.394903915867191
