// Id               X                Y
  1  -0.0994615923642239  3.26493023983303
  2  0.849612332959175  3.24874187501492
  3   1.84996404628903   3.1236387149068
  4   2.77048224809009  2.93239108803399
  5   3.65354391172016  2.69818858194016
  6   4.52417315142531  2.46437902528851
  7   5.40763180092298  2.27630009506295
  8   6.29967458519458  2.13390456350803
  9   7.19211486690454  2.00923512498968
 10   8.07621085034108   1.8558072875705
 11   8.94022958967647  1.60566854167839
 12   9.38083114510731  1.36430643777681
 13   9.76389563919986  1.00890099776923
 14   10.0008157309649  0.44379401927862
 15   9.85233480432008 -0.081098671157504
 16   9.12514097658463 -0.306971210644753
 17   8.60459185769323 -0.196042384846104
 18    8.5145118024263 -0.166180983865695
 19   8.45740888680808 -0.145625559894001
 20   8.40301273805571 -0.124876495393862
 21   8.34677381905241 -0.102273140731484
 22   8.28068851482361 -0.0742224643731222
 23   8.20039809188831 -0.03805989418283
 24   8.10510742060156 0.00770257182786903
 25   7.99593260900765 0.063690549187568
 26   7.87471451101979 0.129931621579216
 27   7.74339271178868 0.205993973923924
 28   7.60378356131093 0.291042926391837
 29   7.45758676145544 0.383847489188063
 30   7.30634120997452 0.482876250085912
 31   7.15115963694772 0.586591046173497
 32   6.99257334996561 0.693692511758247
 33   6.83067862327914 0.803131054589684
 34   6.66533756887993 0.914033171985362
 35   6.49630119941634  1.02565062754226
 36   6.32328079501672  1.13732975036938
 37   6.14599846427906  1.24848767914144
 38   5.96422778748675  1.35859267711624
 39   5.77782638848648  1.46714967398235
 40   5.58675893100532  1.57369250637544
 41   5.39110844604256  1.67778309504739
 42   5.19107515418761  1.77901609263279
 43   4.98696402876473  1.87702629630436
 44   4.77916415417501  1.97149588398771
 45   4.56812379175077  2.06215923387849
 46   4.35432489653388  2.14880424604881
 47   4.13825996503666  2.23127018406869
 48   3.92041297234028  2.30944278698632
 49   3.70124510386074  2.38324771177814
 50   3.48118514964154  2.45264335772531
 51   3.26062380270748  2.51761394771533
 52   3.03991061085288  2.57816351500306
 53   2.81935193090739  2.63431121555843
 54   2.59920804241911  2.68608813134899
 55   2.37968794293826  2.73353538815824
 56   2.16094169949409  2.77670297628657
 57      1.94305254112  2.81564829558594
 58   1.72603302701227  2.85043347619234
 59   1.50982969895929   2.8811211753593
 60   1.29433768260807    2.907769559713
 61   1.07942231099571  2.93042786547074
 62  0.864941978148673  2.94913379438564
 63  0.650766660775313  2.96391321899411
 64  0.436788975743928  2.97478181677311
 65  0.222927354006437   2.9817477629953
 66  0.00912266995295275  2.98481454667731
 67  -0.204669680197544  2.98398316607276
 68  -0.418490256597315  2.97925323076478
 69  -0.632386762931245   2.9706227573654
 70  -0.846424088781381  2.95808669107835
 71  -1.06069115649814  2.94163444855296
 72  -1.27530234805516  2.92124707267332
 73  -1.49039156411325  2.89689486370201
 74  -1.70609818762583  2.86853645803605
 75  -1.92254656440501  2.83612007427354
 76  -2.13982339722451  2.79958695833442
 77  -2.35795902669099     2.75887617296
 78  -2.57691734699189   2.7139293356998
 79  -2.79659530371396  2.66469415182339
 80  -3.01682897071631   2.6111264703774
 81  -3.23740162447426  2.55319147382824
 82   -3.4580503823154  2.49086497493359
 83  -3.67847027808027  2.42413562497741
 84  -3.89831650149743  2.35300843882343
 85  -4.11720636274995  2.27750967458579
 86  -4.33472260844754  2.19769284564746
 87  -4.55041943019295  2.11364544897028
 88  -4.76383211870293  2.02549581153912
 89  -4.97449086910818  1.93341927794868
 90  -5.18193867739875  1.83764283943016
 91  -5.38575252490016  1.73844734048199
 92   -5.5855661447496  1.63616670995498
 93  -5.78109174395749  1.53118431368199
 94  -5.97213738723292  1.42392744496251
 95  -6.15861665747294   1.3148618971131
 96  -6.34054789705215  1.20448909938306
 97  -6.51804167422626  1.09334810300926
 98  -6.69127652690497 0.982023766216299
 99  -6.86046356484492 0.871161283638523
100  -7.02579887833194 0.761486749697933
101  -7.18739563109222 0.653836165542434
102  -7.34516630675349 0.549206727533893
103  -7.49861491543359 0.448844969950891
104  -7.64666640366311 0.354267970351443
105  -7.78784074826712 0.267020572894483
106  -7.92055785378953 0.188363395005858
107  -8.04316306471908  0.11918904248268
108  -8.15388261415742 0.0600305174754517
109  -8.25101507964317 0.0109997973700476
110  -8.33352763650356 -0.0283810571721799
111   -8.4022217781218 -0.0594896542564672
112  -8.46139193595754 -0.0850183250028395
113  -8.51908392251436 -0.108749980418455
114  -8.58001241155442 -0.132539939533955
115  -8.67780639188737 -0.16793241428029
116  -9.19690100555837 -0.297813575194196
117   -9.9358383656272 -0.107489888452855
118  -10.1117762894286 0.405541183542916
119  -9.91001663237038 0.974668595950951
120  -9.54685637706649  1.34692467241776
121  -9.11824553559279  1.60414442499241
122  -8.26226590529517   1.8730896472868
123  -7.38157488287605  2.03066727077589
124  -6.49123717124111  2.14878821902725
125  -5.60042983877817  2.27833317920168
126  -4.71719794240354  2.45119748492859
127  -3.84699323619991  2.67232912325366
128  -2.97259264284818  2.90784712570282
129  -2.07602465286627  3.09388833524117
130  -1.06319960804615   3.1927159997729
131  -0.0919292997835311  3.85669485196575
132  0.861167106698806  3.83268768804598
133   1.80808868358484  3.71818274490514
134   2.74818223692569  3.53353945832773
135   3.67886873537236  3.30700369097791
136   4.60297605905763   3.0771281949636
137   5.52654627529956  2.88370174880606
138   6.45995540713137  2.73198673133491
139   7.41166742152957  2.58738849798549
140   8.43218923490187  2.35458251684215
141   9.39292212692129  1.90153003712352
142   9.89628769696711  1.45860505274014
143   10.2737632739934 0.917917825265309
144   10.4931004593883 0.417747144108721
145    10.636447515468 -0.0710767460606347
146   10.7853523629101 -0.724062954600215
147   10.7776467508767 -1.81176223995291
148   10.5739113171974 -2.20838095794579
149   10.2958360961262 -2.52008548240684
150   9.96951393281865 -2.75205767541335
151   9.61358854520654 -2.91108100843294
152   9.24790261649562 -3.00371717799068
153   8.88832422293298 -3.04025381010281
154   8.54406492570157 -3.03257486568661
155   8.21895342575643  -2.9915630391756
156   7.91360057724061 -2.92607094505585
157   7.62700036910981 -2.84292468085079
158   7.35738921935778 -2.74725457851425
159    7.1026022801517 -2.64281373288648
160   6.86032658325372 -2.53227773624285
161   6.62850024135734 -2.41763366361781
162   6.40555547260174 -2.30051844733305
163   6.19032804128392 -2.18234715008428
164   5.98189652723128 -2.06433167359156
165   5.77949143973321 -1.94749060413524
166   5.58244930138101  -1.8326630374329
167   5.39018129580387 -1.72052130228824
168   5.20214624648347 -1.61158195343666
169   5.01782657233549  -1.5062169766641
170   4.83670896691704 -1.40466755365952
171   4.65827205682989 -1.30706187629427
172    4.4819822328091 -1.21343695073397
173    4.3072971610128 -1.12376284346626
174   4.13367506671912 -1.03796700738915
175   3.96058721435256 -0.955956350081722
176   3.78753107863777 -0.877635333217993
177   3.61404223363559 -0.802919248406152
178   3.43970367833671 -0.731742605586938
179   3.26415197852563 -0.664063153019761
180   3.08708017279255 -0.599862403200527
181    2.9082378922261 -0.53914370749612
182   2.72742963083826 -0.48192895065049
183   2.54451257307189 -0.42825484208272
184   2.35939567165837 -0.37816953987707
185   2.17204138865106 -0.331729918620404
186   1.98247021878581 -0.288999224389463
187   1.79076584153529 -0.250044378955634
188   1.59707662841788 -0.214932188932412
189   1.40160918130858 -0.18372440229436
190   1.20461251980132 -0.156472584422854
191   1.00635588741794 -0.13321437248231
192  0.807105951535238 -0.113972322520579
193  0.607108890785185 -0.0987555706573442
194  0.406580408371762 -0.0875635771711466
195   0.20570399165372 -0.080390761601076
196  0.00463598460525953 -0.0772308711836813
197  -0.19648460759087 -0.078080220210091
198  -0.39752365647735 -0.0829392790159032
199  -0.598338713874646 -0.0918123859345661
200  -0.798767008600869 -0.104705616040115
201  -0.998616762730741  -0.1216231231424
202  -1.19766413256543 -0.142562612449039
203  -1.39565780974134 -0.167510957365383
204  -1.59233210499137 -0.196441184156921
205  -1.78742699992846 -0.229311871557133
206  -1.98071085767323 -0.266069304733397
207  -2.17199987284431 -0.306651693325976
208  -2.36116951205486 -0.350994013809902
209  -2.54815694459913 -0.39903212373052
210  -2.73295738951245 -0.450705644558817
211  -2.91561889174492 -0.50596003478341
212  -3.09623891389026 -0.564748653345856
213  -3.27496384721914 -0.627035378885224
214  -3.45199072804916 -0.692797831085561
215  -3.62756966818841 -0.762030757157907
216  -3.80200552345992 -0.834748828286788
217  -3.97565769245764 -0.91098792852509
218  -4.14893737838596 -0.990803971512743
219  -4.32230207473664 -1.07426833525304
220  -4.49624747253166 -1.16145918368328
221  -4.67129747576435 -1.25244828371773
222   -4.8479935592854 -1.34728344994948
223   -5.0268852431778 -1.44596742111017
224  -5.20852383356237 -1.54843465905557
225  -5.39346157712325 -1.65452802171892
226  -5.58225783154989 -1.76397721811461
227  -5.77549282718522 -1.87638025254132
228  -5.97378851184899 -1.99118785182117
229  -6.17783561875546 -2.10768962218959
230  -6.38842770351532 -2.22500011394524
231   -6.6065098649225 -2.34204449302704
232  -6.83327147005407  -2.4575495553559
233   -7.0703227488114 -2.57003635339592
234  -7.31982115596065 -2.67771055958642
235  -7.58422062614712 -2.77810934746105
236  -7.86584149094768 -2.86768317745171
237  -8.16664779095128 -2.94149586412007
238  -8.48794904550971 -2.99290315644365
239    -8.829600149934 -3.01318353870637
240  -9.18844898774265 -2.99143552923405
241  -9.55614552605742 -2.91543612764972
242  -9.91765360873198  -2.7741018490926
243  -10.2536341951618 -2.55982135156972
244  -10.5460289667699 -2.26480556081566
245  -10.7686518250902 -1.88417372476824
246  -10.8345344665264 -0.796531796309652
247  -10.7207796406183 -0.136460795913198
248   -10.604221876156 0.359451177884074
249  -10.4130582152382 0.867066610563774
250  -10.0623566132788  1.42472292763668
251  -9.57601522697692  1.88749026903694
252  -8.62636594237749  2.36526271477361
253  -7.60507566182315  2.60713638890084
254  -6.64886935504439  2.74747619984828
255  -5.71271166143775  2.88707357827391
256   -4.7863612130182  3.06568926243261
257  -3.85928335164487  3.28260093931855
258  -2.92386940972406  3.49981185858975
259  -1.97935421748463  3.67946830836986
260  -1.03744087572647  3.80070777407318
