// Id               X                Y
  1  -1.64213512524027  16.3382712517979
  2   -0.8719090179989  16.9497262052131
  3  0.229842052363693   17.002037259241
  4   1.28887535326283  16.7735386311937
  5   2.28327473216942  16.3381823103008
  6   3.16853053946118  15.7366548520925
  7   4.00789413955076  15.0725481356662
  8   4.82683462232896  14.3781085972934
  9   5.65137233203647  13.6889175761959
 10   6.49687013146518  13.0222559817849
 11   7.37049446467524   12.389965353265
 12   7.92738666164423  12.0038214532206
 13   8.48093636180636  11.6122769151261
 14   9.01255113591975  11.1923623876176
 15   9.49035065226744  10.7137756417533
 16   9.89972958662102  10.0887361639325
 17   10.0990193587994  9.76927442702931
 18    10.288757368177  9.43829182984494
 19   10.4579752836988   9.0931457942183
 20    10.593737050186   8.7317965267179
 21    10.681452833707  8.35702382148284
 22   10.7079260486224  7.97633655516444
 23   10.6634263555183   7.6017327468083
 24   10.5432198553137  7.24898344977154
 25   10.3487189059704  6.93589317381453
 26   10.0877434989168   6.6797851970199
 27   9.77360040040419  6.49500814577006
 28   9.42330207077914  6.39116670265141
 29   9.05545851069996  6.37223991850178
 30   8.68810202426293  6.43647895295904
 31   8.33661383863684   6.5771193944088
 32    8.0121671840896  6.78390348047576
 33   7.72111792036218  7.04502844153658
 34   7.46537911798213  7.34891632679294
 35   7.24341971095016  7.68538532084075
 36   7.05143155177077  8.04615212697782
 37   6.88434958695376  8.42483207825133
 38   6.73659945495663  8.81666356836177
 39   6.60257720057005   9.2181363824384
 40    6.4769224038617  9.62662942385402
 41   6.35465433320426  10.0401039899344
 42   6.23122778266223  10.4568636445076
 43   6.10254754017597  10.8753756521253
 44   5.96496513178175  11.2941438749102
 45   5.81527050811558  11.7116229658774
 46   5.65068434081779   12.126165250696
 47   5.46885256983884  12.5359933889181
 48   5.26784278539641  12.9391932751747
 49   5.04614116338612  13.3337226397622
 50   4.80264847352057  13.7174315253296
 51     4.536673821482  14.0880913499962
 52   4.24792508628313  14.4434296910506
 53   3.93649537366024  14.7811682869647
 54   3.60284517361206  15.0990620910406
 55   3.24778025507299  15.3949375377913
 56   2.87242563277432  15.6667285138238
 57   2.47819618526221  15.9125088608555
 58   2.06676467795257  16.1305205747234
 59    1.6400280454847  16.3191971907283
 60   1.20007281399147  16.4771821494273
 61  0.749140502667439   16.603342204831
 62  0.289593746585322  16.6967761575653
 63  -0.176116256119579  16.7568193611659
 64  -0.64548053342516  16.7830445567563
 65  -1.11596109830201  16.7752596407953
 66  -1.58501757731411  16.7335029670324
 67  -2.05013175750059  16.6580367349984
 68  -2.50883022137401  16.5493389329908
 69  -2.95870532795014  16.4080941943674
 70  -3.39743484974891  16.2351838030334
 71  -3.82280059157215  16.0316749578634
 72  -4.23270629882781  15.7988092861147
 73  -4.62519511545507  15.5379904911514
 74  -4.99846677994198  15.2507709371107
 75  -5.35089465966212   14.938836918122
 76   -5.6810426269937  14.6039923363487
 77  -5.98768168443618  14.2481405237835
 78  -6.26980615973621  13.8732639879294
 79  -6.52664922553028  13.4814019399406
 80  -6.75769746046219  13.0746255724278
 81  -6.96270416832463  12.6550111884317
 82  -7.14170121488914  12.2246114377435
 83  -7.29500923264894  11.7854250868043
 84   -7.4232461828819  11.3393659307845
 85  -7.52733445113614  10.8882316518382
 86   -7.6085068846149  10.4336736423074
 87  -7.66831245822865  9.97716905899104
 88  -7.70862258609287  9.51999667472879
 89  -7.73163949083792  9.06321847343658
 90  -7.73990852404391  8.60766942975405
 91  -7.73633691015044  8.15395857797284
 92  -7.72422203525371  7.70248540545569
 93  -7.70729298313784  7.25347700345558
 94  -7.68976915955786  6.80705366466197
 95  -7.67643872183964   6.3633344115553
 96  -7.67275555105959  5.92260023246131
 97  -7.68494383831805  5.48554242052355
 98  -7.72007941198844  5.05363560520852
 99  -7.78608029579846  4.62968408574721
100  -7.89147981321286  4.21857924146656
101  -8.04477825961057  3.82824147063602
102  -8.25311202898873  3.47055595915055
103  -8.52004783059281  3.16182692785819
104  -8.84267333488224  2.92197450459763
105  -9.20888711166497  2.77172777112847
106  -9.59650432992006  2.72787997891262
107  -9.97555729137733  2.79812913099487
108  -10.3135640263376  2.97784201248562
109  -10.5819011149387  3.25017828207126
110  -10.7612347150343  3.58943051077338
111  -10.8445789308276   3.9665175326084
112  -10.8372019663834  4.35492051149514
113  -10.7536626570458   4.7351693399782
114  -10.6129281304633   5.0971073141584
115  -10.4328506640107  5.43966910765749
116  -10.2287384443014  5.76507418039978
117  -9.78975583621951  6.37213860614849
118  -9.27259463059539  6.82388124236637
119  -8.70374191456741  7.20960616613101
120  -8.11843101248048  7.56930599669871
121  -7.53331369390722   7.9339027885632
122   -6.6701175640654  8.56818449617464
123  -5.87504624907927  9.28905971891532
124  -5.16432748143244  10.0920953008622
125  -4.54433535431832  10.9661795019761
126  -4.01094731970907  11.8936842428621
127  -3.54506783195407  12.8523907168295
128  -3.11289073386032  13.8167225223387
129  -2.67593712670568  14.7506363565875
130  -2.21147865669545  15.5964034120875
131  -1.58138331843329  16.9459036935977
132  -0.590338196416002  17.4243356238375
133  0.485634653519165  17.5308167595053
134   1.53298218233537  17.3150659875648
135   2.50519656773516   16.875798934115
136   3.39982913844414  16.2933268651843
137   4.23812982208894  15.6339914952092
138   5.05021689285935  14.9462937605592
139   5.86030619775766  14.2634357643491
140   6.68091668526371  13.6036822494031
141    7.5147927800821  12.9680946464176
142    8.0340368635791   12.583826870302
143   8.55653583376126  12.2031113235793
144   9.07839581321367    11.82616504012
145   9.57802680187059  11.4667651363856
146   9.96360924619154  11.1888250840287
147   10.5723735994468  10.6620944993514
148   11.0299992119759  10.1314826032957
149   11.3664344351554  9.59056045110219
150   11.5981967545824  9.03533934863564
151   11.7303633986671  8.46263848069062
152   11.7577368118997  7.87751080102566
153   11.6714122826099  7.29564371393192
154   11.4656283919672   6.7414918298382
155   11.1426349813781  6.24441705414844
156   10.7150618915694  5.83390455126557
157   10.2056764944291  5.53460756449415
158   9.64463117468476  5.36215365355836
159   9.06486352396357   5.3208351943807
160    8.4970664357866  5.40387046504432
161   7.96576732536789  5.59588056556142
162   7.48732190217285  5.87646721685971
163   7.06976240522528  6.22377684638768
164   6.71398622007469  6.61733567088732
165   6.41565818508882  7.03983842914961
166    6.1672491814799  7.47788809650905
167   5.95979012225949  7.92191065181422
168   5.78413619973071  8.36557140882222
169   5.63172926503188  8.80499742316319
170   5.49496051475206  9.23801744904749
171   5.36726926675859  9.66352818351999
172   5.24309646579501  10.0810184685599
173   5.11777581945139  10.4902394376786
174   4.98741129794518  10.8909911024029
175    4.8487649430026  11.2829938865546
176   4.69916385917075  11.6658185737378
177   4.53642737602123  12.0388548819299
178   4.35881189581375  12.4013049850667
179   4.16496981906722  12.7521929692464
180   3.95391891653315  13.0903844380833
181    3.7250189282111  13.4146125573239
182    3.4779527101789  13.7235080893475
183   3.21270979273595  14.0156316996864
184    2.9295707155491  14.2895072318497
185    2.6290909556469  14.5436548867638
186   2.31208366031073   14.776623399314
187   1.97960073880901  14.9870204295601
188    1.6329121537009  15.1735405080392
189   1.27348348297003  15.3349900049133
190  0.902951997872859  15.4703087332152
191   0.52310161878804  15.5785879426103
192  0.135837175283641  15.6590846040701
193  -0.256841587673953  15.7112320185367
194  -0.652865840221724  15.7346468954075
195  -1.05012297311868  15.7291331326454
196  -1.44648109166433  15.6946825853874
197  -1.83981249482115  15.6314731331458
198  -2.22801601768536  15.5398643492259
199   -2.6090381860648  15.4203910446756
200  -2.98089318562172  15.2737549097161
201  -3.34168168143756  15.1008144159999
202  -3.68960853641829   14.902573081171
203  -4.02299947076448  14.6801661403581
204  -4.34031668406336  14.4348456234045
205   -4.6401734323725   14.167963806026
206  -4.92134752199775  13.8809549899021
207  -5.18279365709999  13.5753155710663
208  -5.42365456745408  13.2525823760955
209  -5.64327085306013  12.9143092780739
210  -5.84118952098395  12.5620421444521
211  -6.01717126372151  12.1972922111852
212  -6.17119664469964  11.8215080159121
213  -6.30347152322884  11.4360460514099
214  -6.41443227798761  11.0421403139325
215  -6.50475168757797  10.6408709168403
216  -6.57534671667747  10.2331319227101
217   -6.6273899639957  9.81959853729242
218  -6.66232719745942  9.40069385919672
219  -6.68190430427743  8.97655560438031
220  -6.68820822916239  8.54700384706612
221  -6.68372821025772  8.11151224081634
222   -6.6714459820124  7.66918808546199
223  -6.65496653855404   7.2187720597642
224  -6.63870385064284  6.75867797682727
225  -6.62813639600505  6.28710835494709
226    -6.630140316134  5.80230416277722
227  -6.65338364677008  5.30301506420962
228  -6.70870883295281  4.78930034839771
229  -6.80932885079474  4.26376611022494
230  -6.97051874272818  3.73326646814583
231  -7.20835186033377  3.21088863360463
232  -7.53703940027205  2.71767710743306
233  -7.96476868788914   2.2831282784193
234  -8.48868839883441  1.94330601768441
235  -9.09060368311296  1.73587819366275
236  -9.73542787058438  1.69251355304322
237  -10.3740590458479  1.83044515247007
238  -10.9511026892407    2.146075836509
239  -11.4157522319684  2.61373162313458
240  -11.7318571822919  3.19110286222808
241   -11.882753372341  3.82980746929869
242  -11.8684952865168  4.48705763714231
243  -11.6963642942301  5.13352255544121
244  -11.3699277202125  5.75258252786653
245  -10.8855558838977  6.33227050787634
246  -10.2295686738195   6.8683195500507
247  -9.83052719703558  7.12774876292809
248  -9.33334414908188   7.4435781768038
249  -8.80051937992006  7.78223162240319
250  -8.27281985892764  8.12762156251998
251  -7.76158870171122  8.48188199218742
252  -6.94873171052695  9.10860541374347
253  -6.19403490828455  9.80880615505973
254  -5.51237345797902  10.5930137425314
255   -4.9138423922147  11.4528635850349
256  -4.39335278155839  12.3722398372985
257  -3.92905645475929  13.3318042767669
258  -3.48093621193104  14.3103330248669
259  -2.98851314524651  15.2796521963821
260   -2.3738613339291  16.1870060534858
