// Id               X                Y
  1  -0.0897602830383598   2.7863048045518
  2    0.8438687156786  2.77671808151655
  3   1.79961392847068  2.74151304101795
  4   2.75014337548308  2.67867942433185
  5   3.67000434002769  2.52721215515194
  6   4.57195204392856  2.33509321204553
  7   5.48671596603934  2.21279376527732
  8   6.41039494523483  2.17966975499989
  9   7.33480151492204  2.19019980271073
 10   8.25717766505557  2.13469842182969
 11   9.14268341592187  1.85327617246094
 12    9.5494287774086  1.51023897653869
 13   9.79867514060893  1.02937539845203
 14   9.78194923368579 0.503528946091454
 15   9.48371686202751 0.100587297625517
 16   8.76054703794516 -0.0233527660259732
 17   8.30051090031383 0.0971464580974955
 18   8.23328727506025 0.121952468011842
 19    8.1762824159632 0.144448292742279
 20   8.12084925205253  0.16755093376009
 21   8.05817570089785 0.195112402303049
 22   7.98096769039024 0.231061291409729
 23   7.88740489825993  0.27742504211616
 24    7.7787773937718 0.334788135701075
 25   7.65743903504693 0.402851621493213
 26   7.52582863865833 0.480711023814377
 27   7.38620689620925 0.566954611001253
 28   7.24060973517402 0.659759694855209
 29   7.09060563170979   0.7572002604405
 30   6.93707069166417 0.857585153228308
 31   6.78031133506113 0.959533495764035
 32   6.62030768547907  1.06190505215429
 33   6.45687079517587  1.16374219893805
 34   6.28972398196888  1.26423705531216
 35   6.11855013300516  1.36270709884274
 36   5.94302585962012   1.4585725362906
 37   5.76285302096702  1.55133412649665
 38   5.57779436528819  1.64055195371809
 39   5.38771614402383  1.72582724917237
 40   5.19263393872349  1.80679120590715
 41   4.99275061663397  1.88310503493541
 42   4.78847319051947  1.95447233494163
 43   4.58040163542313  2.02065944187796
 44   4.36929303406857  2.08151587471594
 45   4.15601154828419  2.13698775588396
 46   3.94147558833043  2.18712086883688
 47   3.72660969331526   2.2320540357655
 48   3.51230266883554  2.27200599750052
 49   3.29936752180153  2.30725961307623
 50   3.08849582206053  2.33814620484679
 51   2.88020519658549  2.36503065292951
 52   2.67479518936632  2.38829579729872
 53   2.47233747101551  2.40832527943733
 54   2.27271188793498  2.42548701750876
 55   2.07567231663085  2.44012108186292
 56   1.88091466693753  2.45253385517939
 57   1.68812806502546  2.46299750778528
 58   1.49702413183958  2.47175244963554
 59   1.30734808219538  2.47901061916287
 60   1.11887818911266  2.48495830520671
 61  0.931419522664521  2.48975799031875
 62  0.744796055515599  2.49354921315665
 63  0.558843451821114   2.4964486857633
 64  0.373403553213905  2.49854995938519
 65  0.188320767646593  2.49992289813738
 66  0.00344013085048187  2.50061315314291
 67  -0.181393392269581  2.50064176302801
 68  -0.366334875851289  2.50000495239103
 69  -0.551539202148542  2.49867415862648
 70  -0.737161166786794  2.49659628343586
 71  -0.923356451574722  2.49369413007589
 72  -1.11028396713965   2.4898669428149
 73  -1.29810996634501  2.48499090657101
 74  -1.48701407291229   2.4789193954867
 75  -1.67719683605293  2.47148269671511
 76  -1.86888746728523  2.46248692003733
 77  -2.06234894383084  2.45171190468228
 78  -2.25787579740987  2.43890824575153
 79  -2.45577829900179  2.42379416200942
 80  -2.65634695536904   2.4060537676618
 81   -2.8597957587716  2.38533902966032
 82  -3.06619341773844  2.36127747780067
 83  -3.27540540668513  2.33348580509558
 84   -3.4870728993794  2.30158663502759
 85  -3.70063600439519  2.26522485068782
 86  -3.91538252318459  2.22408232094847
 87  -4.13049784508476  2.17789240875788
 88  -4.34510664346657  2.12645526170115
 89  -4.55831064408361   2.0696526959522
 90  -4.76922921974002  2.00745974041407
 91  -4.97704544028076  1.93994946894076
 92   -5.1810545830123  1.86728880284003
 93  -5.38070730808733  1.78972556511808
 94  -5.57563746789817  1.70757060389651
 95  -5.76566673994871  1.62118153541291
 96  -5.95078516748899  1.53095449674327
 97  -6.13111474891393  1.43732688184583
 98  -6.30686692650805  1.34078974797159
 99  -6.47830200516575  1.24190634634133
100  -6.64569225523724  1.14133361341556
101  -6.80928469447861  1.03984504352067
102  -6.96925457829476 0.938355451035296
103  -7.12563076744821 0.837953352910762
104  -7.27814945573389 0.739959989195306
105  -7.42599881500981 0.646021977566297
106  -7.56764002853566 0.558092476170164
107   -7.7010366724446 0.478099976979462
108  -7.82398206946773 0.407582413204319
109  -7.93415834364345 0.347574264487628
110  -8.02935435374274 0.298516937967301
111  -8.10840168386635 0.259954273038576
112  -8.17319223881953 0.229921439234643
113  -8.23102180687731 0.204371619428173
114   -8.2906648143875 0.179308900283955
115  -8.36148428404428 0.151309732081747
116  -8.81781934585143 0.0166456439069407
117  -9.54646417226517 0.105744540759664
118  -9.86880479000786   0.4892199756209
119  -9.92071902459238  1.01129145148873
120  -9.70408302613547  1.50466702129976
121  -9.31851911055647   1.8673323544335
122  -8.44478121473358  2.17755150673786
123  -7.52459842395146    2.240889637061
124  -6.60203695940353  2.22245772983878
125  -5.67949469220676  2.23861600550734
126  -4.76381562824527  2.34190730803218
127  -3.86082517808097  2.51907977194634
128  -2.94095335234395  2.67415288840942
129  -1.98196727118809  2.74074267588693
130  -1.03298230707429  2.75799063794333
131  -0.0949752421158836   3.3879578086554
132  0.848391193840369  3.38485267334488
133   1.78986333066449  3.34969785911825
134   2.72944473808982  3.26732334182365
135   3.66552210586133  3.12099956259755
136   4.59636277226597   2.9487199502579
137   5.52871340021408  2.82752914003201
138   6.46784532358279  2.79280185771503
139   7.41303596933508  2.80105474172779
140   8.36446119565008  2.73754870602168
141   9.26769527727002  2.42523060070187
142   9.72145884208258  2.04385855393767
143   10.0556027459131    1.488629420766
144   10.2027662476578 0.825772616071327
145   10.2391363751519 0.142095071325867
146   10.3594822570483 -0.507264672067628
147   10.4906631977656 -1.56447187718491
148   10.3040923059097 -1.95459866424023
149   10.0377647064578 -2.24634099904331
150   9.72181543827813 -2.45510767632585
151   9.38025566825702 -2.58997366741057
152   9.03449925303677 -2.66140994335183
153   8.69804755158059 -2.68242918819184
154   8.37713694883581 -2.66533957677749
155   8.07363984813174 -2.62018377835401
156   7.78723839502656 -2.55468718612382
157    7.5165104945796 -2.47464602543303
158   7.25946002322963 -2.38432382170388
159   7.01405162523554 -2.28689238876087
160    6.7786326507869 -2.18487019607004
161   6.55194756854697 -2.08036180035212
162   6.33298867886368 -1.97513703130034
163   6.12090599729475 -1.87067196112539
164    5.9149750192366 -1.76818713094424
165   5.71458479326722 -1.66868172433175
166   5.51922837807918 -1.57296089351081
167    5.3284876313365 -1.48165511671361
168   5.14200751645832  -1.3952317252423
169   4.95945830838492 -1.31400076362352
170   4.78048988970517 -1.23812014547224
171   4.60468899900198 -1.16760673192567
172   4.43155235018716 -1.10235797316592
173   4.26048295297934 -1.04218342646739
174   4.09080771883153 -0.986840528642455
175   3.92180804069299 -0.936067610044231
176   3.75275411051762 -0.889609104698665
177   3.58293689034752 -0.847231132486771
178   3.41169669616393 -0.808728360424014
179   3.23845261430374 -0.773924503150882
180   3.06273948702401 -0.742668642038269
181   2.88425309598504 -0.714827767028135
182   2.70288794918526 -0.690274338730612
183   2.51874181492694 -0.668869446464642
184     2.332075910293 -0.650446690720177
185   2.14324699973585 -0.634803451268016
186   1.95263895628566 -0.621702395993844
187   1.76061249057146 -0.610881160331614
188   1.56747784610355 -0.602065915612653
189   1.37348644775189 -0.594985045767972
190   1.17883466470555 -0.589380727093634
191  0.983673497464615 -0.585017650364935
192  0.788119858677872 -0.581689023848857
193  0.592266958203133 -0.579220393147531
194  0.396192678206768 -0.577471891800482
195  0.199965700210285 -0.576339459488363
196  0.00364963894464934 -0.57575543632922
197  -0.192694316578585 -0.575688813192025
198  -0.389005648335627 -0.576145306719327
199  -0.585222996533217 -0.577167333763641
200  -0.781282236126177 -0.578833875213894
201  -0.977113501233002 -0.581260133000175
202  -1.17263656466912 -0.584596786021628
203  -1.36775411373392 -0.589028534186272
204  -1.56234276640074 -0.594771488061558
205  -1.75624226532994 -0.602068839833898
206  -1.94924431093553 -0.611184203782463
207  -2.14108403720342 -0.622392163474073
208  -2.33143905927683 -0.635966086036787
209  -2.51994266605066 -0.652164323684464
210  -2.70621753544922 -0.671217460758766
211  -2.88993182511881 -0.693320649646288
212   -3.0708687110441 -0.718634890291533
213  -3.24898678838815 -0.747297950910285
214  -3.42444529456109 -0.779440612227374
215  -3.59758642895116 -0.81520163534503
216  -3.76889318021104 -0.854737877124225
217  -3.93894703809799 -0.898230032425851
218  -4.10839535631593 -0.945884954491198
219  -4.27792472563461 -0.99793360557695
220  -4.44823412333044 -1.05462241843168
221  -4.62000529649036 -1.11619617571661
222  -4.79387273443553 -1.18287219988342
223  -4.97039956648537 -1.25480823287561
224  -5.15006741240643 -1.33206897286599
225  -5.33328606169507 -1.41459724613671
226  -5.52042265404186 -1.50219382908171
227  -5.71184285130298 -1.59450552570642
228  -5.90795325749627 -1.69101704942894
229  -6.10923699064564 -1.79104107451757
230  -6.31627995954143 -1.89370231264447
231  -6.52979040627997 -1.99791369645656
232  -6.75061856300149 -2.10234454787748
233  -6.97979253243542 -2.20538282333073
234  -7.21861018683262 -2.30509582048115
235  -7.46881694591735 -2.39916699153627
236  -7.73266703735929 -2.48467871012138
237  -8.01251329821659 -2.55763837176759
238  -8.31020219236118 -2.61246572169436
239  -8.62655278219058 -2.64156041723993
240  -8.96034143998294 -2.63486505538625
241   -9.3061636171361  -2.5797931415684
242  -9.65144393839497 -2.46261001694383
243  -9.97553708611269 -2.27166110719198
244  -10.2551724308323 -1.99655167143278
245  -10.4613912104051 -1.62049983808754
246  -10.3861777630033 -0.554627657952182
247  -10.3035318746268 0.100303360054904
248  -10.3097654211499 0.784729312566328
249  -10.2041154806179  1.45566381284306
250  -9.90153211756377  2.03019216714784
251  -9.45357254852718  2.44165805966802
252  -8.55834528981329  2.77904508796309
253  -7.60589448725743  2.85115574033506
254  -6.65939869947769  2.83555753145359
255  -5.71916585942813  2.85343759947208
256  -4.78491636481963   2.9563307003589
257  -3.85275419828971  3.11848325086931
258  -2.91591629809102  3.26150714135682
259  -1.97580891520121  3.33919103182458
260  -1.03401545564115  3.36997341247366
