// Id               X                Y
  1  -0.0981771029159541  4.35796654333329
  2  0.883593176768728  4.31012093408801
  3   1.85684506584378  4.15941527403023
  4   2.81022369001709  3.90764158188803
  5   3.68662976311828  3.59612631047916
  6     4.519490588088  3.23387439875524
  7   5.36655779540909   2.9059767758181
  8    6.2281580989543  2.61640140025911
  9   7.09447078702035  2.34802752476716
 10   7.95206936313305  2.06633723429871
 11   8.78533269032021  1.71588522527333
 12   9.20752844919039   1.4350791209873
 13   9.56921246615058  1.05226987777581
 14   9.77935682305354 0.478551907119371
 15   9.61353154820348 -0.0452240824738418
 16   8.89576865391473 -0.25643592601376
 17   8.54081606558965 -0.195349383042229
 18   8.36616011348367 -0.139633282169615
 19    8.2748974727134 -0.104022306729943
 20   8.20676195311435 -0.0745386796522057
 21   8.17256358194937 -0.0588249576535217
 22   8.11950266141331 -0.0332106094380667
 23   8.03337958767797 0.0115097183795899
 24   7.93076937595157 0.0697827077212144
 25   7.81648520420574 0.140907193551046
 26    7.6939041374044 0.224207659477664
 27   7.56555339137309 0.318779266187131
 28   7.43325705972698 0.423508055237224
 29   7.29823462569703 0.537147453610603
 30   7.16120171096354 0.658398025475501
 31   7.02247349956027 0.785972082282756
 32   6.88206361565881 0.918638436986109
 33     6.739772483658  1.05524885557205
 34   6.59526202902711  1.19475021645103
 35   6.44811604505888  1.33618674580624
 36   6.29788721943732   1.4786960368771
 37   6.14413271282411  1.62150159274988
 38   5.98644046469324  1.76390376350488
 39   5.82444824701002  1.90527033547819
 40   5.65785706889466  2.04502765025192
 41   5.48644002234608  2.18265287606755
 42   5.31004719903865  2.31766781920548
 43   5.12860700907473  2.44963439894884
 44   4.94212413914628  2.57815163567082
 45   4.75067447424938  2.70285377646591
 46   4.55439749435162   2.8234090643324
 47   4.35348684630794  2.93951866854832
 48   4.14817990093098  3.05091541468855
 49   3.93874709666514  3.15736213059662
 50   3.72548175172734  3.25864960032226
 51     3.508690834988  3.35459424665357
 52    3.2886869730087  3.44503572417887
 53   3.06578178096343  3.52983460203369
 54   2.84028046675026  3.60887026709338
 55   2.61247758014657  3.68203910842846
 56   2.38265375686451  3.74925297456518
 57   2.15107332551894  3.81043784266679
 58   1.91798268433747  3.86553261185611
 59   1.68360939512734  3.91448793298512
 60   1.44816197031141  3.95726500969973
 61   1.21183033747657  3.99383434210034
 62  0.974786955140332  4.02417442451644
 63  0.737188529748995  4.04827044367215
 64  0.499178256654836  4.06611304653128
 65  0.260888485606539  4.07769725595343
 66  0.0224436990947177  4.08302160805648
 67  -0.216036310018763  4.08208757113516
 68  -0.45443317029256  4.07489928595432
 69  -0.692626674960587   4.0614636443845
 70  -0.930491634206568  4.04179069975831
 71  -1.16789493294076  4.01589437934591
 72  -1.40469289097384  3.98379344834068
 73  -1.64072902027647  3.94551265776377
 74  -1.87583226489384  3.90108399861551
 75  -2.10981579085719  3.85054798454641
 76  -2.34247636764841  3.79395489748207
 77  -2.57359435492583  3.73136595498606
 78  -2.80293428624776  3.66285439161944
 79  -3.03024603306702  3.58850648319278
 80  -3.25526654169072  3.50842257487658
 81  -3.47772216227998  3.42271819391083
 82  -3.69733162555852  3.33152532927971
 83  -3.91380975818519  3.23499394169653
 84  -4.12687204755515  3.13329372939001
 85  -4.33624015706798  3.02661612499936
 86  -4.54164844274052  2.91517644739403
 87  -4.74285142694133  2.79921609393952
 88  -4.93963204984939  2.67900464924647
 89   -5.1318103601003  2.55484181838696
 90  -5.31925214943607    2.427059170138
 91  -5.50187691368125  2.29602178972052
 92  -5.67966446112156  2.16213006607289
 93  -5.85265949967975  2.02582193996862
 94  -6.02097360003758  1.88757597955199
 95  -6.18478400916107   1.7479156053104
 96  -6.34432881661406   1.6074146559272
 97  -6.49989789738602  1.46670428999267
 98  -6.65181883981081  1.32648098301625
 99  -6.80043673015122   1.1875151159192
100  -6.94608627125999  1.05065933916955
101  -7.08905437154776 0.916855485418994
102  -7.22953119982664 0.787138244846732
103  -7.36754793892286 0.662633127562586
104  -7.50290027699986 0.544545582395729
105  -7.63505818730998  0.43413794312962
106  -7.76306461568018 0.332691955081761
107   -7.8854271397221 0.241458519739247
108  -8.00000263593322 0.161606261700959
109  -8.10384468750663 0.0942073825823156
110  -8.19279696316167 0.0404099422531163
111  -8.25763451236213 0.00356188901337661
112   -8.3133938262872 -0.0265068328180452
113  -8.40051685447458 -0.0704704614986236
114  -8.50202544188825 -0.116937653171479
115  -8.68044956886678 -0.186070012929596
116  -9.03387603684375 -0.273746004475529
117  -9.77050514510866 -0.129233992447194
118  -9.98422906602558 0.374270348974129
119  -9.82262396950164 0.963274824847038
120  -9.48460404034827  1.37011387056285
121  -9.07338876638959  1.67142431010545
122  -8.24532604477859  2.04302626464799
123  -7.38276480334415  2.32717968100451
124  -6.50526901534069  2.58746436698474
125  -5.62839591827706  2.86714667816915
126  -4.76270884394837  3.18658884641152
127   -3.9107830085313  3.54232975785514
128  -3.00242901146339  3.88721405475585
129  -2.05129796029228  4.14478541164565
130  -1.07210793830107  4.27781937226729
131  -0.213373986236712  4.93683186524749
132  0.773857280516618  4.89504483043995
133   1.76712751476407  4.74897265608336
134   2.75101038015644  4.50680849473833
135   3.72125249778683  4.18736825888175
136   4.65749650994806  3.83244831107099
137   5.55584710812888  3.49560718481482
138   6.46001608584226  3.19070337544446
139   7.38272274409603  2.89557955920593
140   8.36111070367609  2.52384046425783
141   9.26817167058857  1.96987300084486
142   9.73341142624671  1.48764795231779
143   10.0761795965459  0.92233449380564
144   10.2703862222928 0.402378919032265
145   10.3876458001747 -0.095292253398418
146   10.4964054418231 -0.752208522491605
147   10.4289571504478 -1.86454264099461
148   10.2286023173691 -2.23438710318098
149      9.96186732305 -2.53273436681736
150   9.64984634794694 -2.75832880720828
151   9.28982537870125 -2.92063742358216
152   8.92396023487584 -3.00943861652216
153   8.57939913766157 -3.03698597471542
154   8.25214774651859 -3.01936950718613
155   7.94269528095387 -2.96690467082052
156   7.65047315153199 -2.88739814606653
157    7.3743053666186  -2.7868457980784
158   7.11278764053534 -2.66994119575369
159   6.86449247946431 -2.54045362208037
160   6.62805934041446 -2.40149122216554
161   6.40222291138313 -2.25567213116282
162   6.18581382463129 -2.10522957181099
163   5.97775078619599 -1.95207465136648
164   5.77703280959598 -1.79783540004981
165   5.58273419523975 -1.64388462137515
166    5.3940018824384 -1.49136376630553
167   5.21005370752968 -1.34120602661921
168   5.03017608716997  -1.1941593638631
169   4.85372014240207 -1.05080905990883
170   4.68009593449823 -0.911599185075217
171   4.50876509033984 -0.776852666598925
172   4.33923253575893 -0.646790016732454
173   4.17103827349046 -0.521547009051031
174   4.00375013306164 -0.401191598364781
175   3.83695822384228 -0.285740211601295
176   3.67027151395822 -0.175173301139287
177   3.50331662341667 -0.0694498534562653
178   3.33573863435844 0.0314795512813736
179   3.16720353031802 0.127661516320915
180   2.99740179080407 0.219130726053126
181   2.82605267049451   0.3059031024666
182   2.65290875169758 0.387971213124125
183   2.47776043993864  0.46530180736732
184   2.30044014800275 0.537835282076852
185   2.12082596748404 0.605486840843216
186   1.93884465518925 0.668149099316577
187   1.75447377131954  0.72569589051126
188   1.56774281045034 0.777987024847069
189   1.37873317971972 0.824873754106953
190    1.1875769123617 0.866204676338703
191  0.994454062013556 0.901831805669417
192  0.799588798099676 0.931616525306748
193  0.603244301898609 0.955435150836184
194  0.405716631221771 0.973183857325088
195  0.207327767040817 0.984782765548421
196  0.00841807358169563 0.990179033711371
197  -0.190661601469542  0.98934885398672
198  -0.389557977746799 0.982298302313766
199  -0.587923353968336 0.969063032970572
200  -0.785423402064431 0.949706847650657
201  -0.981744566293799 0.924319205325236
202  -1.17660088518442 0.893011776928179
203  -1.36974005231063 0.855914188426817
204  -1.56094854331364 0.813169134494717
205  -1.75005566838995 0.764927077601743
206  -1.93693646248462 0.711340768215025
207  -2.12151339298924 0.652559827400107
208  -2.30375693476577 0.588725623912487
209  -2.48368512155385 0.519966658714621
210  -2.66136222167014 0.446394648349401
211  -2.83689670177275 0.368101482275375
212  -3.01043864040465 0.285157222621176
213  -3.18217674374556 0.197609317389058
214  -3.35233511213773 0.105483204204032
215  -3.52116991804205 0.00878448161028297
216  -3.68896618919726 -0.0924971923012207
217  -3.85603494236223 -0.198382357315709
218  -4.02271097226842 -0.308894119992919
219  -4.18935164910725  -0.4240486840762
220  -4.35633709356299 -0.543844192347081
221   -4.5240720598519 -0.66824810835383
222   -4.6929897519398 -0.797183393688294
223  -4.86355762995056 -0.930513690364047
224   -5.0362850575833 -1.06802759631245
225  -5.21173244133482 -1.20942195067782
226  -5.39052137284627 -1.35428387297506
227   -5.5733452563654 -1.50207117572154
228  -5.76098001241524 -1.65209070681788
229  -5.95429468823265 -1.80347410940585
230  -6.15426211602538 -1.95515023586207
231  -6.36197000831774 -2.10581272796484
232  -6.57863281719759 -2.25387971314375
233  -6.80560388091839 -2.39743982324161
234  -7.04438514012768 -2.53417464323579
235  -7.29662699364299 -2.66124244851212
236  -7.56410233352608  -2.7751025479909
237  -7.84862509233715 -2.87125552357081
238  -8.15186466574891 -2.94387498038952
239   -8.4749914453532  -2.9853132221451
240  -8.81815167512957 -2.98545762036071
241  -9.18174100244832  -2.9303026961446
242  -9.54216057299348 -2.80826861726629
243  -9.86598364731495 -2.62304028306138
244  -10.1594439869417 -2.36086751132167
245  -10.3974009531689 -2.02041271853467
246   -10.582613645583 -0.917343502547421
247  -10.5379218289394 -0.251831950310644
248  -10.4666979972268 0.254342887608264
249  -10.3166776738179 0.789134060650611
250  -10.0148107591666  1.37884778054774
251  -9.57597041712376  1.88758181263225
252  -8.68421581758662  2.47319543789361
253    -7.703165565487  2.85655667473797
254  -6.76182517882713  3.15065840701128
255  -5.85089178883798  3.44476629642656
256  -4.95259684295345  3.77320963889683
257  -4.04426571335797  4.12666261407922
258  -3.08676590731942  4.46726913409073
259   -2.1324501980196  4.72365115146913
260  -1.17503341389136   4.8778534212517
