// Id               X                Y
  1  -0.0920166865259313  3.34302918746546
  2  0.900066205695375  3.32176167427656
  3   1.91366553042504  3.24914503906523
  4   2.95441588631144  3.11503713668893
  5     3.876921455012   2.9007536958418
  6   4.74560526139802  2.63440810075579
  7   5.63313669096834  2.43001677870221
  8   6.53952512471986  2.31317540305474
  9    7.4528775849089  2.24478573278631
 10   8.36225499099291  2.12117100463958
 11   9.22423753003435  1.78934119067578
 12    9.6127921769045  1.43311945172339
 13   9.84696954642224 0.950007810796527
 14   9.82206957317694 0.426205868274939
 15   9.51961276509252 0.0275932954970066
 16   8.79369362933531 -0.0840655094243725
 17   8.33498657238041 0.0509902791441194
 18   8.25607056196305 0.0840229402042626
 19   8.19440000009057 0.111898119566634
 20   8.13583015414299 0.139989209991049
 21   8.07383868273713 0.171434581216829
 22   8.00076111123925 0.210671632097695
 23    7.9134723043555 0.260517971317275
 24   7.81224290675388 0.322147445512365
 25   7.69889428875556 0.395632503055788
 26   7.57564333828362 0.480294085284336
 27   7.44459403601181 0.574896022719363
 28     7.307602496359 0.677749915652706
 29   7.16620633208853 0.786881815449348
 30   7.02142628647758 0.900366898104875
 31   6.87368584505185  1.01658481625076
 32   6.72298371494136  1.13422241271502
 33   6.56908920912801   1.2521956710642
 34   6.41165481790669  1.36959803745321
 35   6.25027463379635  1.48566932489841
 36   6.08451906165153  1.59977048977718
 37   5.91396086480975  1.71135909182099
 38   5.73820188832884   1.8199639874111
 39   5.55690759453551  1.92515942037887
 40   5.36985233921431   2.0265412260981
 41   5.17697000400123  2.12371115841012
 42   4.97839610740929   2.2162759858603
 43   4.77448652179595  2.30386320736443
 44   4.56580632920304  2.38614776223355
 45   4.35309336676017  2.46287981312037
 46   4.13720745786384  2.53390491872477
 47   3.91907667257745  2.59917242346551
 48   3.69964850293091  2.65873241483441
 49   3.47984908511378  2.71272440307012
 50   3.26054888348579  2.76136181013042
 51   3.04252929109252   2.8049159212176
 52   2.82644328391794  2.84370152708961
 53   2.61276893155694  2.87806421364033
 54   2.40176902629992   2.9083670547418
 55   2.19348114183023  2.93497469706825
 56   1.98775142614038  2.95823624171191
 57   1.78429922783258  2.97847113978132
 58   1.58278598743397  2.99596121251069
 59   1.38286879499677   3.0109487452475
 60   1.18423260545873  3.02363856589385
 61  0.986604079725742  3.03420178662108
 62  0.789753048076444  3.04277958299445
 63  0.593487207494656  3.04948619962961
 64  0.397644090370006  3.05441096879954
 65  0.202082718583398  3.05761946349855
 66  0.00667608256453933  3.05915404027793
 67  -0.188695290900891  3.05903403353478
 68  -0.38414896032929  3.05725579842276
 69  -0.579805941607485  3.05379270040143
 70  -0.775796463325648  3.04859503734352
 71  -0.972266612740098   3.0415897699196
 72  -1.16938603387088   3.0326798435789
 73  -1.36735621575201  3.02174283574708
 74  -1.56641793008411  3.00862869633765
 75  -1.76685499660008  2.99315653075044
 76  -1.96898989214945  2.97511077721638
 77  -2.17316534562186  2.95423779811676
 78   -2.3797064097051  2.93024473136126
 79  -2.58886204340699  2.90280297044276
 80  -2.80073594916146  2.87155795153343
 81  -3.01522946627997  2.83614439973067
 82   -3.2320210401035  2.79620328108299
 83  -3.45058740681965  2.75139675675019
 84  -3.67024764122507  2.70142086062179
 85  -3.89020770674542   2.6460182643825
 86  -4.10959707846194  2.58499281653329
 87  -4.32750105548204  2.51822523391968
 88   -4.5429953837443  2.44568739480606
 89  -4.75518741918707  2.36745165648378
 90  -4.96326397477034  2.28369160796349
 91    -5.166541583909  2.19467202547858
 92  -5.36451092941116  2.10072881316271
 93  -5.55686507939955  2.00224385662943
 94  -5.74350304970843  1.89962308110997
 95  -5.92450711518542  1.79328591081717
 96  -6.10010152037939  1.68366978495216
 97  -6.27060558230492  1.57124723515118
 98  -6.43639164985119  1.45654976412752
 99  -6.59785083909659  1.34019370578524
100  -6.75536260732174  1.22290600067482
101  -6.90925992810714  1.10555034305325
102  -7.05977626971456 0.989157928702936
103  -7.20694513559773 0.874977422068647
104  -7.35040947686829 0.764563585034745
105   -7.4892099363967 0.659826638343336
106  -7.62183117838307 0.562818476521069
107  -7.74645574633257 0.475353256089627
108  -7.86107480108438 0.398801012654731
109  -7.96360138662429 0.333982903451465
110  -8.05234136594783  0.28097221956533
111  -8.12710569844552 0.238701272639127
112  -8.19103648257295 0.204375875813999
113  -8.25178305599172 0.173368118035236
114  -8.31591027199863 0.142382674268104
115  -8.39878913145298 0.105062953242101
116  -8.85326266160261 -0.0458801582905069
117  -9.58445783254589 0.028922981854698
118  -9.91098350223723 0.407678789702658
119  -9.97026324202482 0.927556032588711
120  -9.76687172700143  1.42282230912177
121  -9.39785453683341  1.79746539113844
122  -8.54670203322428  2.15612876027567
123  -7.63791083787606  2.28826686806478
124  -6.72288770077643  2.35179914794134
125  -5.81278782329894  2.45654937675494
126   -4.9189079330914   2.6475854729632
127  -4.04260731786541  2.90442561437563
128  -3.12472435133641  3.11544866061202
129  -2.10046357867511  3.24529527196483
130  -1.07281042830053  3.29363640418958
131  -0.0929277805869106  3.93429013838816
132  0.871380385539887  3.91611194136197
133   1.83288609833077  3.83984294501847
134   2.79121495514119  3.70048876164757
135   3.76002166629021  3.49500847467004
136   4.71532489969213  3.24849531853518
137    5.6444845889297  3.04667542406864
138    6.5793943194932  2.92793198796044
139   7.52078658136651  2.85684313286785
140   8.46102802917873  2.72618746508158
141   9.34412683314691  2.36984701758358
142   9.78493680210461  1.97299008971873
143   10.1066883657253  1.41031777794887
144   10.2453637102461 0.746535439189066
145    10.276378293751 0.063666694798666
146   10.3912407692236 -0.586673337416924
147   10.4909037463822 -1.58205147197641
148   10.3103877733324 -1.97542320069212
149   10.0503680912621 -2.27115307746326
150   9.74059472300614 -2.48403718797545
151   9.40220253626067    -2.62327536913
152   9.05527313420282 -2.69766320149855
153   8.71432124768034 -2.71866461275083
154   8.38717619476968 -2.69806610168928
155   8.07691889006135 -2.64605793367301
156   7.78397423793158 -2.57076534949102
157   7.50742444954425 -2.47846383494509
158   7.24565717642169 -2.37391659291803
159   6.99675220185792 -2.26070108170857
160   6.75889644219814  -2.1415921956702
161   6.53062608522347 -2.01889205412031
162   6.31077035503096 -1.89456762192959
163   6.09833913473174  -1.7702882190588
164   5.89247197796295  -1.6474545832584
165   5.69242522185576 -1.52723197577677
166   5.49756979612058 -1.41058129875055
167   5.30738744823568 -1.29828400972767
168   5.12145862971305 -1.19095837173701
169     4.939437018228 -1.08906615411655
170    4.7610090673348 -0.992912005626031
171   4.58584424930208 -0.902642157272275
172   4.41354921242573 -0.818251516080335
173   4.24363985804287 -0.739605014655893
174   4.07553775875386 -0.666471835854019
175   3.90858768147324 -0.59856537155067
176   3.74208754068513 -0.535580705858568
177   3.57532188900047 -0.477223916231745
178   3.40759285112804 -0.423230976843104
179   3.23824616033604 -0.373376867002784
180   3.06669377571766 -0.327477149706883
181   2.89243796442877 -0.285384809830843
182   2.71510286335763 -0.246984456513771
183   2.53447398478584 -0.212184058384425
184   2.35053206975959 -0.180902487398705
185   2.16345723344875 -0.153052368040452
186   1.97359073210829 -0.12852246426172
187   1.78136771217869 -0.107166603663796
188   1.58724751528224 -0.0888031206598774
189    1.3916608625223 -0.0732235178343685
190   1.19497959901991 -0.0602061347644106
191  0.997505724001557 -0.0495307120653533
192  0.799473422540242 -0.0409912296034519
193  0.601058225193533 -0.0344059233123268
194  0.402389041100563 -0.029624415418388
195  0.203560496587178 -0.0265324070939308
196  0.00464435530283334 -0.0250545324552106
197  -0.194300264195507 -0.0251559144005617
198  -0.39321756564929 -0.0268428040941763
199  -0.592046026209369 -0.0301624871334402
200  -0.790708920249154 -0.0352024287570347
201  -0.989103854313388 -0.0420884215954853
202  -1.18709113307764 -0.050981308366406
203  -1.38448145349101 -0.0620717135376125
204  -1.58102446898758 -0.0755722039937931
205  -1.77640121512301 -0.0917065310296709
206  -1.97022510951619 -0.110696246801044
207  -2.16205765360447 -0.13274616258658
208   -2.3514446400155 -0.158031697610847
209  -2.53797415225107 -0.186692412339036
210  -2.72134694967931 -0.218835384478618
211  -2.90143666898054 -0.254548305119022
212  -3.07831519817304 -0.293917058710842
213  -3.25223753027003 -0.337041167826077
214  -3.42360437649815 -0.384044406319594
215  -3.59292480055824 -0.435081857730996
216  -3.76078774124543 -0.490344743412611
217   -3.9278395463718 -0.550062257004501
218  -4.09476167131325 -0.614498112182901
219  -4.26224482930669 -0.68393924921715
220  -4.43095936667029 -0.758674989994076
221  -4.60152517166204 -0.838966798759849
222  -4.77448753149987 -0.925011571132132
223  -4.95030699699462 -1.01690431063828
224  -5.12936972518408 -1.11460746969978
225  -5.31201885858471 -1.21793218370621
226  -5.49859940429264 -1.32653109520714
227  -5.68950427497693 -1.43989679916832
228   -5.8852113385461 -1.55735816563511
229  -6.08630797067285 -1.67806924028207
230  -6.29350551603623 -1.80098909323291
231  -6.50764965271023 -1.92485366574002
232  -6.72973780470243 -2.04814294347285
233  -6.96096995456597 -2.16905041902054
234  -7.20287112135149 -2.28545291341117
235  -7.45740516271436 -2.39479939405344
236  -7.72678236963032 -2.49377563186006
237   -8.0129980585057 -2.57785405198112
238   -8.3174166149309 -2.64091886378011
239  -8.64016076082122 -2.67489953540428
240   -8.9788449218729 -2.66949004340665
241  -9.32647879758334 -2.61249161860839
242  -9.66939864775013 -2.49160623445282
243   -9.9881653013562 -2.29689471661233
244  -10.2624042736782 -2.01797087159403
245  -10.4634292115397 -1.63893111018633
246  -10.4191053498812 -0.638166230966529
247   -10.342569142175 0.017686236366414
248  -10.3541337531663 0.701103925968761
249   -10.256334071937  1.37246363873266
250  -9.96549531416769  1.95318624196575
251  -9.52987141022113  2.37969173998568
252  -8.65484281896989  2.75936431914657
253  -7.71363383418998  2.89917200763695
254  -6.76978098324644  2.96590448101444
255  -5.83192074441916  3.07282656864282
256  -4.89962343783231  3.26192185167672
257  -3.94483457885878  3.49879877145239
258  -2.96836408690855  3.69937475384767
259  -2.00806628560924  3.83015184934756
260  -1.05102296194677   3.9020010564849
