// Id               X                Y
  1   -1.6416727047556  16.2506148807223
  2  -0.871937239480871  16.8630346986668
  3  0.230136527546464  16.9158735668234
  4   1.28956401929818   16.687831099089
  5   2.28457450976604  16.2529198323132
  6   3.17018627555489  15.6517544844539
  7   4.01023058035233  14.9881696041771
  8   4.83040733732483  14.2956297122471
  9   5.65634099307533  13.6083785497946
 10   6.50319018114505  12.9437491937628
 11   7.37793623961296  12.3134255948538
 12   7.93518714397338  11.9282264461631
 13   8.48883235936479  11.5372564510126
 14   9.02022054403498  11.1175186045832
 15   9.49742482689245   10.638896546249
 16   9.90608799898833  10.0138870394919
 17   10.1046788587962   9.6956516856079
 18   10.2938603131725  9.36592063150954
 19    10.462595059664  9.02214637941373
 20   10.5981040173502  8.66214226080675
 21   10.6859125628059  8.28854522686784
 22   10.7128376454743  7.90879723967144
 23    10.669112878935  7.53485282482869
 24   10.5499435356016   7.1824289608547
 25   10.3566523910732  6.86926749673056
 26   10.0969357869692  6.61264296205916
 27   9.78395199632499  6.42689615631291
 28   9.43456442925675  6.32168201037996
 29   9.06726425831184  6.30108765250426
 30   8.70002225304382  6.36351143386253
 31   8.34822782306284  6.50234257732394
 32    8.0231227422117  6.70744950620501
 33   7.73116563007604  6.96710798695253
 34   7.47437760850238  7.26976982632937
 35   7.25132066038801  7.60524623420212
 36   7.05825602083214  7.96522596922898
 37   6.89016436353105  8.34328850259838
 38   6.74149770261578  8.73463672188741
 39   6.60666444740917  9.13572937662515
 40   6.48030723414439  9.54392020784413
 41   6.35744259607743  9.95715117169508
 42   6.23351916619018  10.3737116053567
 43   6.10443361294482  10.7920587241614
 44   5.96652824155602  11.2106895503757
 45   5.81658316872707  11.6280541956903
 46   5.65180891261001  12.0425019284873
 47   5.46984115014364  12.4522531350715
 48   5.26873728808565  12.8553916437239
 49   5.04697359589077  13.2498728736647
 50   4.80344142831818  13.6335439842389
 51   4.53744119562764  14.0041727300303
 52   4.24867303263341  14.3594821487129
 53   3.93722347439655  14.6971885696061
 54   3.60354781265646  15.0150407642088
 55   3.24844815252613  15.3108583856388
 56   2.87304749277979  15.5825681726876
 57   2.47876039966357  15.8282367286362
 58   2.06726102244024  16.0460990204342
 59   1.64044930299635  16.2345820703764
 60   1.20041626195772  16.3923236170999
 61  0.749409205992102  16.5181857922981
 62   0.28979760646612  16.6112640825607
 63  -0.175959737006298  16.6708920142049
 64  -0.645345797020441  16.6966421091347
 65  -1.11581440370965  16.6883237122701
 66  -1.58481720252402  16.6459782904438
 67  -2.04982852116624  16.5698727564343
 68  -2.50836830466065  16.4604912896495
 69  -2.95802336687305  16.3185260176516
 70  -3.39646726024252  16.1448668012395
 71  -3.82147908285241  15.9405902408097
 72  -4.23096152547366  15.7069479029224
 73  -4.62295841507555  15.4453536619462
 74  -4.99567194136659  15.1573699694818
 75  -5.34747966637368  14.8446928095829
 76  -5.67695132212003  14.5091350746014
 77  -5.98286530713969  14.1526081070572
 78  -6.26422470837685  13.7771011977533
 79  -6.52027261055301  13.3846589080822
 80  -6.75050641949309  12.9773561920075
 81  -6.95469092722139  12.5572714260724
 82  -7.13286989106709  12.1264576087578
 83  -7.28537599028408  11.6869121587892
 84  -7.41283916279523   11.240545922751
 85  -7.51619351041604  10.7891521966897
 86  -7.59668319151847  10.3343767809573
 87  -7.65586799606592  9.87769033580365
 88  -7.69562962557659  9.42036460735887
 89  -7.71818009431575  8.96345447612037
 90  -7.72607414807009   8.5077882772384
 91  -7.72222817553321  8.05396950579016
 92  -7.70994873433738  7.60239394853533
 93  -7.69297438564624  7.15328767777973
 94   -7.6755346443411  6.70677360068223
 95   -7.6624286717697  6.26297807229741
 96  -7.65912225331048  5.82219543343355
 97  -7.67185175973333  5.38513806195723
 98  -7.70770356213099  4.95331181762365
 99  -7.77460031009471  4.52956562130978
100  -7.88106584112871  4.11885215585747
101  -8.03556325566948  3.72917013503082
102  -8.24514560993364  3.37249121486488
103  -8.51323335677232  3.06518828486866
104  -8.83670555504722  2.82718666217612
105  -9.20322769120467   2.6791060277171
106  -9.59043703747086  2.63749459230918
107  -9.96833179329333  2.70971306236251
108  -10.3045800981243  2.89079900327466
109  -10.5708551607256   3.1636925764096
110  -10.7481762195586  3.50262375709378
111  -10.8298767107961  3.87858924047917
112  -10.8214469566366  4.26524917910855
113  -10.7375116171002  4.64339975386593
114  -10.5968981202851  5.00321089870904
115  -10.4172463827665  5.34382208629957
116  -10.2139413810389   5.6672919545539
117  -9.77543039134008  6.27404802258887
118  -9.25854963437211   6.7256398173218
119  -8.68972546715422  7.11095383543123
120  -8.10434277985527  7.47008915896048
121   -7.5191571402711   7.8339075931303
122  -6.65668153184554  8.46972593245426
123  -5.86267770301822  9.19208497412582
124   -5.1533648904157  9.99670163522411
125    -4.535059633034  10.8723109200531
126  -4.00350102314148  11.8011686789383
127  -3.53943903472944  12.7610289769677
128  -3.10893838531137  13.7263698442063
129  -2.67336304525504  14.6613056847136
130  -2.21006840996802  15.5079366469095
131  -1.58125805597269  16.8582953787106
132  -0.590545287667199   17.337674027205
133   0.48544452802854  17.4448628820407
134   1.53298042040563  17.2296316980785
135   2.50550249130048  16.7908289280163
136   3.40062521003819  16.2088803663701
137   4.23973384256502  15.5503888872316
138   5.05303377556302  14.8641372487302
139   5.86462153697123  14.1831015523892
140   6.68677681391743  13.5252087050024
141   7.52213161242375  12.8911778671273
142   8.04225639928587  12.5076368256216
143    8.5654953053141  12.1275046822554
144   9.08791166076534  11.7509654620939
145   9.58850082628686  11.3912869682318
146   9.97449790663058  11.1130361089505
147   10.5724226666706  10.5957608687688
148   11.0279821597699   10.069557718339
149   11.3659118529909  9.52959418933797
150    11.599863017208  8.97374940835286
151   11.7339146119061  8.40025894901173
152   11.7628961700037  7.81469872212771
153   11.6781912417227  7.23272463375014
154   11.4742604774939   6.6785141487954
155   11.1534031215094  6.18108877756455
156   10.7281186482261  5.76964955359019
157   10.2209125702553  5.46870035918286
158   9.66162797001577  5.29389420855105
159   9.08294494845395  5.24971395123067
160   8.51542647913192  5.32967084033053
161   7.98361849798492  5.51869491389667
162    7.5040143787528  5.79664087861179
163   7.08485036369051  6.14181316712369
164   6.72724060285361  6.53379369971574
165   6.42703806952611  6.95524713043643
166   6.17685029465285  7.39269071939662
167   5.96778919188361  7.83644156794763
168   5.79074436740414  8.28005865628578
169   5.63716009084628  8.71958024647747
170   5.49941193908222  9.15276901624349
171   5.37091587515973  9.57847700245021
172   5.24608800357485  9.99616549453959
173   5.12023881755256  10.4055702901271
174   4.98945185129934  10.8064840463089
175   4.85047162150694  11.1986246263343
176   4.70061032321106  11.5815628528797
177   4.53767458299096  11.9546896644909
178    4.3599099254697  12.3172087641289
179   4.16595939513811  12.6681455612413
180   3.95483270919769  13.0063664911684
181   3.72588271238762  13.3306049181495
182   3.47878643946591  13.6394911222292
183   3.21352863279871  13.9315846233095
184   2.93038606531044  14.2054075221202
185   2.62991147036073  14.4594777842011
186   2.31291627778664  14.6923415517093
187   1.98045169902883  14.9026036934242
188   1.63378799315163  15.0889559246673
189   1.27439197850709  15.2502019584419
190  0.903903031029499  15.3852792890169
191  0.524107930230156  15.4932773551992
192  0.136914980483251  15.5734519749116
193  -0.255672146766622  15.6252360763305
194  -0.651580427088498  15.6482468650214
195  -1.04869298468314  15.6422896542865
196  -1.44487378698975   15.607358643014
197  -1.83799132085696   15.543634950609
198  -2.22594112041455    15.45148221409
199  -2.60666708806558  15.3314400229173
200  -2.97818160474419  15.1842154192544
201  -3.33858446027686  15.0106726329515
202  -3.68608064872091  14.8118211595069
203  -4.01899706894234  14.5888022329077
204  -4.33579815165708  14.3428736995596
205  -4.63510040659197  14.0753932686999
206  -4.91568585431859  13.7878001009581
207   -5.1765142842055  13.4815947002274
208  -5.41673427044501  13.1583170929766
209  -5.63569288964257   12.819523310176
210  -5.83294412312361  12.4667602254644
211  -6.00825600188396  12.1015388435519
212  -6.16161666922184  11.7253061691086
213  -6.29323970365923  11.3394158125366
214  -6.40356927267073  10.9450974998732
215   -6.4932859889666  10.5434256473239
216  -6.56331473404598  10.1352871416725
217  -6.61483622669428   9.7213484578807
218  -6.64930479279835  9.30202230058471
219  -6.66847571186613  8.87743419730444
220  -6.67444678948698  8.44739013155222
221  -6.66972058416101  8.01134780377391
222  -6.65729613022655  7.56839715375749
223  -6.64080196031883  7.11726147284335
224  -6.62468497138665  6.65634032388458
225  -6.61446981318246  6.18383132929446
226  -6.61709553262769  5.69799066544155
227  -6.64131007977594  5.19761948411735
228  -6.69804457922497  4.68288498641714
229  -6.80058569876263  4.15657531942896
230  -6.96422343149352  3.62580303897015
231  -7.20492950098356  3.10395992302281
232  -7.53664809645435  2.61236749043409
233  -7.96713050097826  2.18066428885286
234  -8.49299059295118  1.84481782642465
235  -9.09554208088135  1.64211318029465
236  -9.73942467275196  1.60360131829516
237  -10.3756161603156  1.74583159538204
238  -10.9491567817725  2.06470976070696
239  -11.4098378893986  2.53446475504853
240  -11.7219587130587  3.11310326204761
241  -11.8689259030821  3.75271239804559
242  -11.8505603150948  4.41063648941752
243  -11.6742111952644  5.05676269504064
244  -11.3450159898175  5.67267532073415
245  -10.8630862610303  6.24501311503348
246  -10.2200905285753  6.76954954565386
247  -9.82037783874805  7.02915570940987
248  -9.32254738110403  7.34476422706098
249  -8.78923215414107  7.68297612377611
250  -8.26107559651784  8.02807100979089
251  -7.74939639361955  8.38238338833025
252  -6.93645116729468   9.0096998673323
253  -6.18213667017891  9.71148530258414
254  -5.50168884564974  10.4973910673527
255  -4.90483193287182  11.3587994697151
256   -4.3861933844075  12.2795151444647
257  -3.92373628367682  13.2402155746962
258  -3.47732719510269  14.2197476858155
259  -2.98641202561879  15.1900419971995
260  -2.37294911967325  16.0983881343045
