// Id               X                Y
  1  -0.0966903791991072  3.28717616159713
  2  0.856520341206301  3.27014903453104
  3   1.82133210519233  3.14694985073489
  4   2.73795732381093  2.95073121745238
  5   3.62338586437917  2.70216410606426
  6   4.50970689768209  2.46384875272357
  7   5.41234411484598  2.27496845136181
  8   6.32649709282308  2.13313294925821
  9   7.24383622885158  2.00387771437759
 10   8.15471371291039  1.82525535606807
 11   9.04426819889646   1.5269282984638
 12   9.50315351183515  1.22119174165215
 13   9.84314041007948 0.788100941578446
 14   9.93896386533241 0.284713738105227
 15   9.73257684543309 -0.160681083920176
 16   9.00692775578154 -0.370352610969184
 17   8.34520138115028 -0.193424548918011
 18   8.08944692420281 -0.0782943443280495
 19   8.02296415269169 -0.0446156615955277
 20   7.96369049729037 -0.0133221861484284
 21   7.90927321378012 0.0164348565641685
 22   7.85227379340352 0.0485819240516535
 23   7.78694929418333 0.0866256511579821
 24   7.71058997464869 0.132596559195711
 25   7.62271529008342 0.187341534742068
 26   7.52404525233323 0.250894771852621
 27    7.4158328192377 0.322755641004281
 28   7.29946020080682 0.402071870760034
 29   7.17618306271378 0.487805592220698
 30   7.04697670517783 0.578882420513912
 31   6.91248340719407 0.674293518491111
 32   6.77304126095401 0.773138456099509
 33   6.62875140164259 0.874627185182866
 34   6.47955042604038 0.978063778462264
 35   6.32527642932163  1.08282398020976
 36   6.16572827496668  1.18833151453031
 37   6.00071881822899  1.29403666225303
 38   5.83012053422873  1.39940074851767
 39   5.65390021877511  1.50388940665715
 40   5.47213949706097  1.60697540906032
 41   5.28503978779862  1.70814924675732
 42   5.09291313142073  1.80693368646854
 43   4.89616260185462  1.90289803804697
 44   4.69525707020803  1.99566878533112
 45   4.49070482400834  2.08493489574391
 46   4.28302943132528  2.17044775345029
 47   4.07274985331653  2.25201677171559
 48   3.86036556860928  2.32950222067548
 49    3.6463465560072  2.40280679640901
 50   3.43112738110852  2.47186717683925
 51   3.21510425733222  2.53664644407774
 52   2.99863372342627  2.59712790307663
 53   2.78203149732259  2.65331051608411
 54   2.56557023575174   2.7052058789016
 55   2.34947551545662  2.75283636901572
 56   2.13392042472179  2.79623383287751
 57    1.9190204675426  2.83543806116535
 58   1.70483139179313   2.8704944587139
 59   1.49135231473731  2.90145077336093
 60    1.2785349241245   2.9283533226427
 61   1.06629729321502  2.95124353407846
 62   0.85453920074383  2.97015557613158
 63  0.643155625825898  2.98511545455766
 64  0.432046158260414  2.99614144352129
 65  0.221119609323023  3.00324536684632
 66  0.0102943419036739  3.00643413603054
 67  -0.200504543659255  3.00571103186089
 68  -0.411349884305643  3.00107638091335
 69  -0.62231771420244  2.99252745839239
 70  -0.833491774967533  2.98005763216775
 71  -1.04496579335513  2.96365496394203
 72  -1.25684200117529     2.94330069823
 73  -1.46922476559853  2.91896823906129
 74  -1.68220927466749  2.89062322568484
 75  -1.89586684399146  2.85822507344133
 76   -2.1102299049268  2.82172986848607
 77  -2.32528018340781  2.78109399957355
 78  -2.54094249565658  2.73627766808572
 79   -2.7570844352758  2.68724760471231
 80  -2.97352018628355  2.63397883277475
 81  -3.19001579907132  2.57645585733037
 82  -3.40629369902425  2.51467396707434
 83  -3.62203538616042   2.4486413472067
 84  -3.83688249065722  2.37838251263694
 85  -4.05043714739537  2.30394331225233
 86  -4.26226299535952  2.22539749711541
 87  -4.47188814190568  2.14285458793113
 88  -4.67881130673134  2.05646848656355
 89  -4.88251213465357  1.96644593411343
 90   -5.0824663024974  1.87305355895887
 91     -5.27816544943  1.77662199506845
 92  -5.46914104601104  1.67754557311991
 93  -5.65499009323892  1.57627660900742
 94  -5.83539920116802  1.47331445669616
 95  -6.01016255300674  1.36919111931076
 96   -6.1791890607968  1.26445682823054
 97  -6.34249506192991  1.15966985828661
 98  -6.50018107012391  1.05539434448357
 99  -6.65239356670721 0.952208016523889
100  -6.79927449441323 0.850719279728787
101  -6.94090136365286 0.751590859259046
102  -7.07721992805962  0.65556584845352
103  -7.20797140589864 0.563490589226199
104  -7.33262321691061 0.476323793097603
105  -7.45033007749212 0.395111497180711
106  -7.55996714762246 0.320905271069007
107  -7.66026532772801 0.254622091522657
108   -7.7500569607998 0.196868709249786
109  -7.82866441995284 0.147735411963395
110    -7.896537350707 0.106507903526058
111  -7.95625321366479 0.071230864700674
112  -8.01362083017068 0.038277151778773
113  -8.07668737509673 0.00316875008021983
114   -8.1484744126076 -0.0352857317068151
115  -8.41345296645224 -0.162832700146795
116  -9.07333497298323 -0.365228629065153
117  -9.81065280061554 -0.193117713134058
118  -10.0422098319366 0.239088173026118
119  -9.97522107191084 0.745567125024734
120  -9.65976926795041  1.19166370973084
121   -9.2174435370645  1.51249662649461
122  -8.33827950005494    1.830546991896
123  -7.43153975153274  2.01525047839877
124  -6.51662487405018  2.14072389086434
125  -5.60389665409451  2.27260214682332
126  -4.70163880471612  2.44936660168893
127  -3.81590750534474  2.67764836433262
128  -2.93263768361268  2.93118014666041
129  -2.03714512291039  3.12287663286561
130  -1.05450852514306  3.21933087678937
131  -0.0920307911432105  3.88244739481119
132  0.854500526837532  3.85533321469013
133   1.79665089710093   3.7375754305618
134   2.73015431119932  3.54600597845005
135   3.65310076452519  3.31212228467839
136   4.56948666706295  3.07935923505869
137    5.4859659936085  2.88941709165556
138   6.40811765077253  2.74652964420073
139    7.3330371917778  2.61704683381936
140   8.24957683451632  2.42950603628716
141   9.11740538190601  2.07544746580977
142   9.56276484925062  1.75415604254774
143    9.9876931132197  1.27653223530331
144   10.3027228211754 0.670629906937225
145   10.4890161894187 0.0143437159253447
146   10.5973328905354 -0.624205652473996
147   10.5440687116697 -1.42430757847247
148   10.3792757465767 -1.81550490687693
149   10.1410788897049 -2.14812948256036
150   9.85374967161206 -2.41245375642406
151   9.53063470753688 -2.61337930234978
152   9.18573931830537 -2.75360877848065
153   8.83318549931483 -2.83762125701934
154   8.48451635483539 -2.87264369486035
155   8.14744309986766 -2.86735064625793
156   7.82612471461244  -2.8303374763429
157   7.52206720349521 -2.76919000788181
158   7.23506700217327 -2.69014394078743
159   6.96399125823091   -2.598123470512
160   6.70733568652459 -2.49696228282862
161   6.46355569654638 -2.38966037238638
162   6.23121743451033 -2.27859601993046
163   6.00904400395751  -2.1656753497596
164   5.79591540729159 -2.05243258097629
165    5.5908499288406 -1.94009683454911
166   5.39297678972764 -1.82963671479252
167   5.20150480349623 -1.72179109514295
168   5.01569158996393 -1.61709336371745
169    4.8348180809276 -1.51589504686476
170   4.65817201497858 -1.41839248399771
171   4.48504186560985 -1.32465740290195
172   4.31472009119611 -1.23466978349915
173   4.14651279212549 -1.14835010860888
174   3.97975230129977  -1.0655881346039
175   3.81380972687349 -0.986266232644018
176   3.64810547047064 -0.910276530781739
177     3.482116760667 -0.837532074113623
178   3.31538200610518 -0.767972836712588
179   3.14750225135103 -0.701567694479161
180   2.97814030582509 -0.638313515326922
181   2.80701832633838 -0.578232446685609
182   2.63391482544842 -0.521368335313585
183   2.45866220969621 -0.467783006396385
184   2.28114587398037 -0.417552840016248
185   2.10130538998875 -0.370765717456272
186   1.91913733566465 -0.327518043212813
187   1.73469805601593 -0.287911341180426
188   1.54810377005124 -0.252048043559962
189   1.35952569282901 -0.220026558886728
190    1.1691794406749 -0.191936289704319
191  0.977310221503628 -0.167853596663889
192   0.78417694460598 -0.147839540823318
193  0.590038583572148 -0.131939676930374
194   0.39514503064745 -0.120185547222495
195  0.199733112016351 -0.112597131411491
196  0.00402717950227788 -0.10918542962504
197  -0.191756938044168 -0.10995449966207
198  -0.38740599697592 -0.114902501277532
199  -0.582702784166986 -0.124021536125849
200  -0.777420375394289 -0.137296303294337
201  -0.971318782203215 -0.154701842798799
202  -1.16414559888704 -0.176200917685218
203   -1.3556418569852 -0.201741825792512
204  -1.54555320199378 -0.231257498381183
205  -1.73364486508593 -0.264666499512491
206  -1.91971738473844 -0.30187598709254
207  -2.10361956091696 -0.342786054599776
208  -2.28525618764457 -0.387294491219652
209  -2.46459024816575 -0.435301103389543
210   -2.6416412916256  -0.4867112407965
211  -2.81648261225721 -0.54143872527902
212   -2.9892394373177 -0.599408675412041
213  -3.16008917923821 -0.66056066121211
214  -3.32926366416881 -0.724852326746137
215  -3.49705253867185 -0.79226325572251
216  -3.66380681431998 -0.862798540025268
217  -3.82994156461253 -0.936491274586446
218  -3.99593695385626 -1.01340302750299
219  -4.16233695066244 -1.09362120392483
220   -4.3297452572994 -1.17725215028841
221   -4.4988182481258 -1.26440889563063
222   -4.6702551721732 -1.35519270644806
223  -4.84478662158817 -1.44966824836902
224  -5.02316325224927 -1.54783311674241
225  -5.20614769612739 -1.64958362470144
226  -5.39451304407964 -1.75467956126215
227  -5.58905070761705 -1.86271055139681
228   -5.7905887489623 -1.97306526107437
229  -6.00001937712901  -2.0849021402639
230  -6.21833206392535 -2.19711734329498
231  -6.44664708242122 -2.30830258864913
232  -6.68624277704913 -2.41668328748016
233   -6.9385658582809 -2.52002464661108
234  -7.20520046485885 -2.61548978671691
235  -7.48774437923512 -2.69943472896723
236  -7.78751717748416 -2.76714836110278
237  -8.10503860818961 -2.81260381146793
238   -8.4392665792675 -2.82836163642839
239   -8.7866499172673 -2.80582513895151
240  -9.14018801784607 -2.73606746903933
241  -9.48900864885405 -2.61128934081672
242  -9.81933848953387  -2.4262653956657
243  -10.1172964330317 -2.17768629024307
244  -10.3702000258586  -1.8598510416069
245  -10.5525823433198 -1.48401158292777
246   -10.649312686302 -0.700592825892558
247  -10.5766164518304 -0.0584197945611521
248  -10.4257605123292 0.606944794067806
249  -10.1406132027837   1.2278325042355
250  -9.73440998171124  1.72421114419305
251  -9.29787211069595  2.06117459118603
252  -8.43686217539316  2.43380027594496
253  -7.52099251016316  2.62826604937326
254  -6.59501971992251   2.7545101322315
255  -5.67119096929304  2.88780276946369
256  -4.75254048327282  3.06618561850624
257  -3.83350272890381  3.29005748714985
258  -2.90514279841789  3.51983412152123
259  -1.96872374244208  3.70756500043382
260  -1.03240707361793  3.82925936919371
