// Id               X                Y
  1  -0.00787117381269371 -0.227663020605167
  2    0.8740662016724 -0.175005286772703
  3   1.71004562859804 0.00327494427618195
  4    2.6404511664032 0.512963839501167
  5   3.44312091851451 0.848885134948144
  6   4.20425610138205   1.2971525966357
  7   4.95964443394609  1.74409460404424
  8   5.74576042721111  2.11822908884191
  9   6.57958313672214  2.35242186447291
 10   7.44233384898723  2.36732492659383
 11   8.27823372150906  2.11983022250203
 12    8.6611525982054  1.83220252265026
 13   8.93669635098013    1.394104322986
 14   8.90165173246644 0.846328953612828
 15    8.4348658855934 0.538794468653018
 16   7.63504231188688  1.00216076839997
 17   6.89425742917865  1.56065173377242
 18   6.45402992801548  1.51849158723024
 19   6.26163273502106  1.43264953943794
 20   6.08061711473197  1.31574342138352
 21   5.91097724403086  1.18204877452439
 22   5.79337499727087  1.08349633790531
 23   5.67337847269256 0.982577814299285
 24   5.56039936582595  0.89079754759468
 25   5.44202809597158 0.800385733489595
 26   5.31924674735289 0.714403767640231
 27    5.1920899790571 0.634458797271088
 28   5.06041385410844 0.561397266757219
 29   4.92467529015497 0.495807234761205
 30   4.78642287883903 0.438151132413866
 31   4.64617241024057 0.387950934014761
 32   4.50513732609758 0.344791209137588
 33   4.36355267169646 0.307915054352957
 34   4.22187790317618 0.276771919021531
 35   4.08026424845232 0.250895221672205
 36   3.93883829581098 0.229955915418051
 37    3.7976971513454 0.213697977156475
 38   3.65691096811241 0.201877246181905
 39   3.51659297370722 0.194221803080444
 40   3.37668108441748 0.190403474428395
 41   3.23711531769973 0.190062807006074
 42    3.0978957772733 0.192822758019841
 43   2.95906232429323 0.198302893949356
 44   2.82067367369515 0.206134023620123
 45   2.68279993047236 0.215967909930047
 46   2.54551628209764 0.227480951429785
 47   2.40889950263538 0.240373174174524
 48   2.27302373148922 0.254365125884962
 49   2.13795821429412 0.269194489417615
 50   2.00376587793248 0.284613602030419
 51   1.87050299515785 0.300388056179273
 52   1.73821978877094 0.316296012649078
 53   1.60696119415492 0.332127763813185
 54   1.47676973809569 0.347684884559034
 55   1.34768771127105   0.3627791679496
 56   1.21976748971074 0.377230502419947
 57   1.09307673243583 0.390865794556273
 58  0.967717883025372 0.403517557167446
 59  0.843792288258409 0.415029924786425
 60  0.721342286659081 0.425266627338476
 61  0.600173999954127 0.434124940577978
 62  0.479868638622499 0.441526447918833
 63  0.359916572728015 0.447400083451354
 64  0.240002715386502 0.451668492091522
 65  0.120016354421816 0.454261441689643
 66  -2.16296163694894e-05    0.455131133766
 67  -0.120055453639401 0.454261123773115
 68  -0.240029607699264 0.451668156441498
 69  -0.359924979462378 0.447400263511504
 70  -0.479857382669449  0.44152764426125
 71  -0.600149490342663 0.434127203634971
 72  -0.72131540730505 0.425269457927605
 73  -0.843771019486834  0.41503275743894
 74  -0.967704232711696 0.403520184751047
 75   -1.0930689282978 0.390868330471031
 76  -1.21976316733228 0.377233114091283
 77  -1.34768522518986 0.362781927153899
 78  -1.47676823830939 0.347687751947017
 79   -1.6069603174606 0.332130636931429
 80  -1.73821942233095 0.316298777605247
 81  -1.87050313965808 0.300390627925787
 82  -2.00376659453994 0.284615946554722
 83  -2.13795960333375 0.269196628011623
 84  -2.27302593660306 0.254367117585699
 85  -2.40890271240454 0.240375075711339
 86  -2.54552074158895 0.227482749882469
 87  -2.68280590350585 0.215969431109522
 88  -2.82068142028702 0.206134810285323
 89  -2.95907195314336  0.19830207371243
 90  -3.09790733460395 0.192818908508412
 91  -3.23712872430538 0.190053909904621
 92  -3.37669703433031 0.190387053827472
 93  -3.51661273103284 0.194195435085737
 94  -3.65693734233186 0.201839539558655
 95  -3.79772967566428 0.213649535372782
 96  -3.93887189298204 0.229900095499876
 97  -4.08028843607137 0.250837967489813
 98  -4.22188943667583 0.276722308419025
 99  -4.36357291501901 0.307887243740239
100  -4.50514843808691 0.344786808873851
101   -4.6462263899162  0.38798650202775
102  -4.78640374755979 0.438182474546506
103  -4.92468804423877 0.495866849749151
104  -5.06032962426938 0.561416824477909
105  -5.19202086681941 0.634484253686781
106  -5.31920135816292  0.71443469684121
107  -5.44203136953361 0.800433217009701
108  -5.56043665232298 0.890845151123471
109  -5.67336976312992 0.982554688002142
110  -5.79331826152667  1.08339440345451
111  -5.91117165006042  1.18212583793703
112  -6.08055336337621     1.31556945156
113  -6.26154093475637  1.43245931633744
114   -6.4539101982636  1.51831137238514
115  -6.89413321804808  1.56054657450699
116  -7.63494232877885   1.0021040247537
117    -8.434782763675 0.538763648876478
118   -8.9015552133348 0.846306265382619
119  -8.93659047900982  1.39406312030123
120  -8.66105357907009  1.83214877765998
121  -8.27813969991645  2.11977683167292
122  -7.44225034814345  2.36729500939429
123  -6.57950123304144   2.3524556928318
124  -5.74566364775657  2.11835058624287
125  -4.95953773420741   1.7444258588729
126  -4.20450533507659  1.29891846699297
127  -3.45200742894081 0.855727673021734
128  -2.69416402338438 0.515754342525732
129  -1.87489860823814 -0.0102315659619708
130  -0.923888752469101 -0.175524314271719
131  -0.00236285449990017 0.383558789114727
132  0.870380481037266 0.438964722179256
133   1.71855375783528 0.628462744497748
134   2.53878637820215  1.05319685786926
135   3.32469840451995   1.4531760619213
136   4.10242075435616  1.90816528340146
137   4.90171865747101  2.35911284017894
138   5.76516201635168  2.73264624613283
139   6.77391143042175  2.93710158256786
140    7.8380655302473  2.80300793797258
141   8.74824069596633  2.22301017741979
142    9.1253647000511  1.64346223348665
143   9.26083391254431  1.02759528736643
144   9.24947141607811 0.533211714314648
145   9.22696517805167 0.107437865797737
146   9.37270890489417 -0.56793364182717
147   9.73448183297498  -1.7814133808049
148   9.73447874851536 -1.78141869857268
149   9.56932986701799 -1.98138285777267
150   9.25324811673092 -2.21297073891421
151   9.15353602389416 -2.28071473415344
152   8.98007826930509 -2.39776682628482
153   8.83925742932575 -2.49567072353416
154   8.69003382875217 -2.60240524700448
155    8.5404315459406 -2.71052904533445
156   8.38652150559119 -2.81980376284055
157   8.22621962785409 -2.92824633395481
158   8.05989262193606 -3.03261019009765
159   7.88825998254088 -3.13064533182528
160   7.71133864364621 -3.22176735245021
161   7.53014326369458 -3.30580170925756
162   7.34485904432864 -3.38353280162936
163   7.15657271240433 -3.45553526194663
164   6.96557177242175 -3.52264739946649
165   6.77193891717963 -3.58553918525531
166   6.57520072712417 -3.64478262409797
167   6.37493767199557 -3.70068621918442
168   6.17096714403673 -3.75333859019924
169   5.96340801654773 -3.80269222266494
170   5.75276697789741 -3.84862671407336
171   5.53964174027894 -3.89106794598465
172   5.32452040734914 -3.93003319297471
173   5.10778584599215 -3.96560982923967
174   4.88974277555538 -3.99792971374029
175   4.67064159473567 -4.02715107933772
176   4.45069271673727 -4.05344885162191
177   4.23007555876193 -4.07700968692116
178   4.00894419728731 -4.09802842792067
179   3.78743071411611 -4.11670427530223
180   3.56564704997457 -4.13323653631043
181   3.34368585648852 -4.14782065766288
182    3.1216204738223 -4.16064522989394
183   2.89950451081131 -4.17189009018781
184   2.67737034878601 -4.18172515157195
185   2.45522857724323 -4.19030914373143
186   2.23306546731957 -4.19778775208731
187   2.01084542041131 -4.20429057850996
188    1.7885063175244 -4.20992764040439
189   1.56597025394101 -4.21478566525562
190    1.3431443673306 -4.21892667051615
191   1.11997341929506 -4.22238927984602
192  0.896450718206625 -4.22519543133548
193  0.672629233997048 -4.22735878235972
194  0.448566200477098 -4.22889144618368
195  0.224329676899639 -4.22980502242889
196  -2.63975764172628e-07 -4.23010835343945
197  -0.224330528801602 -4.22980470046339
198  -0.448568055695431 -4.22889061023829
199  -0.672632688898068 -4.22735714617745
200  -0.896455846607177 -4.22519277172905
201  -1.11997932316302 -4.22238557655444
202  -1.34314977402565 -4.21892213381519
203  -1.56597471901047 -4.21478062892112
204  -1.78851018829139 -4.20992242363167
205  -2.01084914687748 -4.20428540634081
206  -2.23306922532416 -4.19778274579933
207  -2.45523237293212 -4.19030434688817
208   -2.6773741425151 -4.18172056606594
209  -2.89950827753551 -4.17188570552876
210  -3.12162420484025 -4.16064104525153
211  -3.34368955560597 -4.14781670517737
212  -3.56565072727192 -4.13323291699806
213  -3.78743438564161 -4.11670120814613
214  -4.00894788308857 -4.09802629381346
215  -4.23007928200682 -4.07700902623332
216  -4.45069649820419 -4.05345026339927
217  -4.67064545702195 -4.02715498214798
218  -4.88974677566107 -3.99793597553112
219  -5.10779024996426 -3.96561733434406
220  -5.32452627214603 -3.93003945649119
221  -5.53965259796534 -3.89106880875487
222  -5.75279262506524 -3.84861595082931
223  -5.96347124329378 -3.80266062475483
224  -6.17111076621886 -3.75327256036355
225  -6.37522051109785 -3.70056828549074
226  -6.57566223121114 -3.64460036495223
227  -6.77252434440131 -3.58530855916096
228  -6.96610144696097  -3.5224286729703
229  -7.15680847167264 -3.45541961388684
230  -7.34475891310309 -3.38355111623968
231  -7.52978511792314 -3.30593713992257
232  -7.71106989937413 -3.22186615708271
233  -7.88811790726757  -3.1306736531589
234  -8.05998313425198 -3.03249180701681
235  -8.22632183435735 -2.92810982331463
236   -8.3864852838991 -2.81976872247359
237  -8.54030609858817 -2.71058279440505
238  -8.68995791633972 -2.60245697074597
239  -8.83936869476218 -2.49562674603083
240  -8.98024382834769 -2.39772268846734
241  -9.15281022752915 -2.28130101831866
242  -9.25320816933352  -2.2131137963573
243   -9.5689346276201 -1.98178366012433
244  -9.73440109729297 -1.78152647566246
245  -9.73440416651273 -1.78152118385053
246  -9.37266605182749 -0.56797996796163
247  -9.22690674677056 0.107442469340099
248  -9.24940405778354 0.533214447404481
249  -9.26074733997342  1.02758255540349
250  -9.12526928686069  1.64340888760465
251  -8.74815101391092   2.2229488514517
252   -7.8380038937525  2.80296382170898
253  -6.77388244287148   2.9371118046742
254  -5.76527844417769  2.73274634420017
255  -4.90176232333158  2.35950844616387
256  -4.10189106090901  1.90974002676729
257  -3.32469060439652  1.45507168902477
258  -2.54435388029531  1.04463225515413
259  -1.74317724232811 0.602424725578155
260  -0.878778438251299 0.426246034739819
