// Id               X                Y
  1  -0.00850087081206061 -0.228053353949881
  2  0.873636940751369 -0.175546202436286
  3   1.71194959539483 0.00664526144773157
  4   2.63930565986501 0.517000133589078
  5   3.44295591298906 0.850143315000134
  6   4.20428083672458  1.29712186000626
  7   4.95953622866963  1.74413773169229
  8   5.74564488020998  2.11838086942424
  9    6.5795420269186  2.35267002020791
 10   7.44248211018089  2.36784565999621
 11   8.27849121893002  2.12012010591837
 12   8.66078078918454  1.83171313928347
 13    8.9357432914256  1.39382421265712
 14   8.90710709831743 0.844670429333247
 15    8.4625589186715 0.524223874725881
 16   7.66685342078872 0.961907200045266
 17   6.84873684778071  1.58601948022144
 18   6.43805807234949  1.52821375834144
 19   6.25323283929468   1.4399451917032
 20   6.07878452345609  1.32281340989875
 21   5.91070599057596  1.18736823432893
 22   5.79233577042636  1.08700541992259
 23   5.67204657891988 0.985486924641267
 24   5.55795046777673 0.893023721266952
 25   5.43938777257465  0.80299366762586
 26   5.31639728725478  0.71741793353702
 27   5.18911172491697  0.63779558687512
 28    5.0574452878529  0.56492631460914
 29   4.92187377308477 0.499406317685358
 30   4.78372758226969 0.441664377264697
 31   4.64363008948186  0.39135828072756
 32   4.50264848637513 0.348091029364282
 33    4.3611082835782 0.311172021451933
 34   4.21944336510824 0.280045984963574
 35    4.0778335624866 0.254234328922905
 36   3.93642361208178 0.233384056918236
 37    3.7953106614169 0.217215322722105
 38   3.65456847478959 0.205470290102652
 39   3.51428287127005 0.197872121729333
 40   3.37440947171302 0.194098824336802
 41   3.23489704699344 0.193798324105646
 42   3.09574487383384 0.196599741898389
 43   2.95698934780249 0.202126203620117
 44   2.81868677197567 0.210009038158773
 45     2.680904951728 0.219898301019002
 46   2.54371730117669 0.231467761849732
 47   2.40719903573692 0.244415089785329
 48   2.27142330125069 0.258459367038937
 49   2.13645874243316 0.273337808187717
 50   2.00236802742999  0.28880301020703
 51   1.86920737577319 0.304621168242314
 52   1.73702707678748 0.320571051788544
 53   1.60587236066318  0.33644333635538
 54   1.47578633429756 0.352039653192227
 55   1.34681301468819 0.367171418809658
 56   1.21900783801425 0.381657755303979
 57   1.09244439982651 0.395324382420217
 58  0.967229221715919 0.408002926865441
 59  0.843460697590407 0.419537580570968
 60  0.721157053347602 0.429794104414926
 61  0.600095931989391 0.438671588744562
 62  0.479844666567834 0.446091583181391
 63  0.359912984424237 0.451980841787957
 64  0.240004766044076 0.456260656420849
 65  0.120020215608553 0.458860420056067
 66  -1.80541689457471e-05 0.459732417840785
 67  -0.120053031741228 0.458860219022314
 68  -0.240027881505359 0.456260489110595
 69  -0.359921214818261 0.451981133296311
 70  -0.479836558176967 0.446092755783716
 71  -0.600075956149024 0.438673731791242
 72  -0.721133815337931  0.42979684568608
 73  -0.84344132284399 0.419540423929889
 74  -0.967216187921315   0.4080056317141
 75  -1.09243666398924 0.395326997394597
 76  -1.21900345027212 0.381660411971938
 77  -1.34681046966891 0.367174185171484
 78  -1.47578480263487 0.352042502521729
 79   -1.6058714716407 0.336446182828412
 80   -1.7370267086173 0.320573796606149
 81  -1.86920752488305  0.30462373737562
 82  -2.00236875382317 0.288805375806192
 83  -2.13646014931404 0.273339992717549
 84  -2.27142553749248 0.258461426767395
 85  -2.40720229902895 0.244417075754182
 86  -2.54372184112728 0.231469653824473
 87  -2.68091103425574  0.21989991414398
 88  -2.81869463271444 0.210009899260148
 89  -2.95699907566972  0.20212541231005
 90  -3.09575645142914 0.196595836883522
 91   -3.2349104238813 0.193789239205369
 92  -3.37442527637996 0.194082048682919
 93  -3.51430255771148 0.197845237264887
 94   -3.6545945538884 0.205431949896961
 95  -3.79534276501195 0.217166248119163
 96  -3.93645605791211  0.23332767159829
 97  -4.07785673715011 0.254176809458687
 98   -4.2194550570751 0.279996694350358
 99  -4.36112668587093 0.311144444170596
100  -4.50266420106085 0.348088938306309
101  -4.64367590144463 0.391392423462489
102  -4.78371762234291 0.441700398655176
103  -4.92187538551444 0.499461614844398
104  -5.05736957073504 0.564949997881824
105  -5.18904174334418 0.637819035840602
106  -5.31635643528113 0.717449266903579
107  -5.43939223367342 0.803038796508491
108  -5.55798183254031 0.893063947775106
109  -5.67203778554355 0.985462505683353
110  -5.79228564193275  1.08690974700716
111  -5.91088780403715  1.18743995888565
112  -6.07871998285607  1.32264361483223
113  -6.25314499865533  1.43976231930381
114  -6.43793969820269  1.52803755380213
115  -6.84860882585277  1.58591036749193
116  -7.66675454666149 0.961850482069878
117  -8.46247653622681 0.524192985647511
118  -8.90701096718478 0.844647657650442
119  -8.93563743053606  1.39378290302804
120  -8.66068167071554  1.83165932129752
121  -8.27839720872515  2.12006672467393
122  -7.44239870790123  2.36781588176222
123  -6.57946048170504  2.35270304618764
124   -5.7455515944324  2.11850032424571
125  -4.95944926002908  1.74449664701546
126  -4.20472550597647  1.29905933124724
127  -3.45306975336287  0.85742114329052
128  -2.69518034509752 0.519560366603261
129   -1.8723948327745 -0.00593485584414922
130  -0.924266481490557 -0.176321500984991
131  -0.00249000235029709 0.382453440173609
132  0.870339752339118 0.438470509325553
133   1.71843412224175 0.631636820859921
134   2.53813143622801  1.05782704738418
135   3.32440257834865  1.45451793180592
136    4.1025541468517   1.9081217970381
137   4.90183573791104  2.35909425394173
138   5.76524915073433  2.73268688022969
139    6.7740235734094  2.93722727966845
140   7.83832594292557  2.80357950258899
141   8.74865739192666  2.22339195628933
142   9.12411344169186  1.64306629077368
143   9.26126090064487  1.02713874576478
144   9.25739853382699 0.529908249645637
145   9.24306729303841 0.0991302870144674
146   9.38381381156414 -0.569038163396621
147   9.71928031283937 -1.77111335523669
148   9.71927981158412 -1.77111427350474
149   9.56552701170296 -1.97161051787213
150    9.2558661174514 -2.21422618937355
151   9.15677522334474 -2.28435195397458
152   8.98478846772387 -2.40309460557431
153   8.84406161518029 -2.50150363592117
154   8.69470319459328 -2.60779773793606
155   8.54446065441301 -2.71524712097044
156    8.3899153699665 -2.82373064476351
157   8.22912166757383 -2.93152700067324
158   8.06253800758994 -3.03552123360566
159   7.89083912246496 -3.13349390969866
160   7.71398760181969  -3.2247715773756
161   7.53287143277591 -3.30908402342299
162   7.34765584832126 -3.38708687526254
163    7.1593797242258 -3.45929175099917
164   6.96834396017007 -3.52650862380766
165   6.77463953830391 -3.58942532283311
166   6.57781347608388 -3.64864795162233
167   6.37746251131198 -3.70452053279461
168    6.1734097946794 -3.75715745222412
169   5.96577881483154 -3.80652019672337
170    5.7550691163757 -3.85248631820899
171     5.541873987852 -3.89497185296406
172   5.32667970732708 -3.93398379543944
173   5.10986874828857 -3.96960326781664
174   4.89174634269411 -4.00196055530187
175   4.67256383407128 -4.03121529144629
176   4.45253238655039 -4.05754456726854
177   4.23183184104404 -4.08113643418071
178   4.01061636919448 -4.10218593989254
179   3.78901799566645 -4.12089167393931
180   3.56714856059414 -4.13745215561348
181    3.3451006452983 -4.15206233948083
182   3.12294755194795  -4.1649107752077
183   2.90074289452249 -4.17617760636814
184   2.67851908896071 -4.18603318099316
185   2.45628687027865 -4.19463656854677
186   2.23403264819015 -4.20213353215813
187   2.01172087015496 -4.20865338744844
188    1.7892884167265 -4.21430551040236
189   1.56665567849012 -4.21917575898683
190   1.34372843758694 -4.22332536309144
191   1.12045435645679 -4.22679263847047
192   0.89683072141466 -4.22960002528601
193  0.672912014965976 -4.23176236758899
194  0.448753930309202  -4.2332931546173
195  0.224423290719303 -4.23420512006365
196  -3.86356963450901e-07 -4.23450781990443
197  -0.224424357018143 -4.23420476715387
198  -0.448755898069925 -4.23329228691678
199  -0.672915416089145 -4.23176074068105
200  -0.896835659864316 -4.22959744168554
201  -1.12046008978246 -4.22678906823449
202  -1.34373381070281 -4.22332097818958
203  -1.56666019757297 -4.21917085312435
204  -1.78929233868472 -4.21430038102927
205   -2.0117246197259 -4.20864825864902
206   -2.2340364134252 -4.20212853691384
207  -2.45629066961162 -4.19463176439983
208  -2.67852288654944  -4.1860285789488
209  -2.90074666540723 -4.17617319860371
210  -3.12295128703397 -4.16490656082851
211   -3.3451043483791 -4.15205835446304
212  -3.56715224216765 -4.13744851436109
213  -3.78902167195417 -4.12088861864726
214  -4.01062005975671 -4.10218387605837
215  -4.23183556612587 -4.08113591161866
216  -4.45253616152145 -4.05754616045327
217  -4.67256767204424 -4.03121935082352
218  -4.89175029483051 -4.00196684776554
219   -5.1098730817444 -3.96961058162528
220  -5.32668551476952  -3.9339896064866
221  -5.54188486195189 -3.89497207041083
222  -5.75509497019195 -3.85247489525652
223  -5.96584246507042 -3.80648819108597
224  -6.17355394007872 -3.75709153098205
225  -6.37774534316898 -3.70440346639029
226  -6.57827367103153 -3.64846734529362
227  -6.77522207877106 -3.58919669958208
228  -6.96886993971895 -3.52629135288814
229  -7.15961396792809 -3.45917573206727
230   -7.3475542666995 -3.38710420390468
231  -7.53251636505253  -3.3092166699692
232   -7.7137169160141 -3.22487034397427
233  -7.89069956827808 -3.13352116082974
234  -8.06262680403838 -3.03540654127628
235  -8.22922692825252 -2.93139354049122
236  -8.38988273948461 -2.82369835439531
237   -8.5443386661368 -2.71530204248456
238  -8.69463095985696 -2.60784850664369
239  -8.84417206344729 -2.50145867151145
240  -8.98494641677592 -2.40304862414511
241  -9.15606247304543 -2.28493449117731
242  -9.25581480339395 -2.21436533731303
243  -9.56514105808909  -1.9720201254529
244   -9.7192002968098  -1.7712196355262
245  -9.71920079219971 -1.77121872796759
246  -9.38376968490796 -0.569085264308395
247  -9.24300938306227 0.0991348806850204
248  -9.25733197479316  0.52991113155374
249  -9.26117519406695  1.02712599997885
250   -9.1240180999527  1.64301291654874
251   -8.7485676286501  2.22333052085916
252  -7.83826442227266  2.80353553309037
253  -6.77399495654854  2.93723548235985
254  -5.76536721804616  2.73278318563558
255  -4.90186479367332  2.35951512336417
256  -4.10199280960774  1.90977733351702
257  -3.32442706466629  1.45638859299412
258  -2.54337826802491  1.04875982742843
259  -1.74206591585557 0.606583838101068
260  -0.878941440689267 0.425617769299016
