// Id               X                Y
  1  -2.07423262595777  16.3718885865713
  2  -1.42734004931928  17.0344488608093
  3  -0.643825511928326   17.569682176545
  4  0.468033185633075   17.499095226469
  5   1.50529015346405  17.1624160735389
  6   2.47334264830208  16.6691079075026
  7   3.38623478349397  16.0829600943901
  8   4.26691832428955  15.4504707997916
  9    5.1373585029528  14.8043736601554
 10   6.01375444345668   14.165964361766
 11   6.90616458668049  13.5493963327479
 12   7.47186959748559  13.1653197957804
 13   8.03094107815286  12.7716375797816
 14   8.56553560650036  12.3464997671643
 15   9.04450839988403   11.860820541237
 16   9.45038328899646  11.2300002675828
 17   9.65940270751985  10.8991362481466
 18   9.86130015798395   10.560224720057
 19    10.046079195198  10.2093855956292
 20   10.2009383140995  9.84361394897645
 21   10.3110057647833  9.46430098563977
 22     10.36241621311  9.07728708966811
 23   10.3443167912096  8.69299288433763
 24   10.2504248280405  8.32605946455972
 25   10.0803811891899  7.99383932809312
 26   9.84030150803986  7.71390093578843
 27   9.54205682716957  7.50138390714732
 28   9.20156643554659  7.36708305120192
 29   8.83678375845105  7.31649120230593
 30   8.46568954875472   7.3495458343464
 31   8.10428485088349  7.46103406036116
 32   7.76486456453675  7.64180957896411
 33   7.45510043471624  7.88061973464012
 34   7.17814969164331  8.16594887463155
 35   6.93351610918044  8.48735338543936
 36   6.71819073122203  8.83612221544665
 37   6.52770341183098    9.205389295876
 38   6.35691647282038  9.58992422322369
 39   6.20054396164132  9.98579451667024
 40    6.0534523364326  10.3900179517491
 41   5.91081408189987  10.8002594915331
 42   5.76817460151594  11.2145884008064
 43   5.62147451396292  11.6312930200815
 44   5.46705272854529  12.0487444497538
 45   5.30164429308252  12.4653002706068
 46   5.12237839526902   12.879239999331
 47   4.92677969348893  13.2887269330914
 48   4.71277051371592  13.6917898073069
 49   4.47867634506083  14.0863228972128
 50   4.22322777805551  14.4700969751178
 51   3.94556515499277  14.8407846835476
 52   3.64523415312689  15.1959883945539
 53   3.32218467455193  15.5332810286437
 54   2.97675614831985  15.8502405088701
 55   2.60966784339399  16.1444973638059
 56   2.22199372076407  16.4137677639429
 57   1.81514366043618  16.6559008701159
 58   1.39083006377717  16.8689058353364
 59  0.951040560272294  17.0509936015767
 60  0.497999143902501  17.2005955759751
 61  0.034132112820589  17.3163956739413
 62  -0.437973008534115  17.3973396448012
 63  -0.915605015356149  17.4426550081261
 64  -1.39596902045027  17.4518514920959
 65  -1.87622390509953  17.4247290975168
 66  -2.35351900600796  17.3613713064664
 67  -2.82502902212115  17.2621432308886
 68  -3.28798657007249  17.1276793696052
 69  -3.73971345669614  16.9588740801977
 70  -4.17764914255725  16.7568650812519
 71  -4.59937812393297  16.5230179777217
 72  -5.00265458786931  16.2589060776584
 73  -5.38542594597814  15.9662900443107
 74  -5.74585383994646  15.6470941765535
 75  -6.08233379198322  15.3033817608491
 76  -6.39351240497182  14.9373278225334
 77  -6.67830282423067  14.5511905821625
 78  -6.93589765963188  14.1472808898007
 79  -7.16577975016084  13.7279304390751
 80  -7.36773026827688  13.2954586566442
 81  -7.54183442912215  12.8521389414891
 82  -7.68848465572519  12.4001645901545
 83  -7.80838157709911  11.9416151474352
 84  -7.90253314107397  11.4784238502225
 85   -7.9722525177463  11.0123470701718
 86  -8.01915556501905  10.5449367352741
 87  -8.04515895999833  10.0775169387839
 88  -8.05248032458293  9.61116617637625
 89  -8.04364204809402  9.14670701861762
 90  -8.02148093310338  8.68470550031934
 91  -7.98916639566243  8.22548316746067
 92  -7.95023069477992  7.76914564939387
 93  -7.90861545977073  7.31563306176509
 94  -7.86873920091655  6.86479999190147
 95  -7.83558953921547  6.41653718923888
 96  -7.81483953103739  5.97095470799099
 97  -7.81297598398757  5.52865831972628
 98   -7.8374030216078  5.09116658636784
 99  -7.89643810733678  4.66152722609709
100  -7.99904358554318  4.24517552339982
101  -8.15404370661012  3.85098953594088
102  -8.36852331983202  3.49227944745458
103   -8.6452383399277  3.18709402868323
104  -8.97939547329377  2.95692129270864
105  -9.35606799552637  2.82309540558806
106   -9.7501086536503  2.80144554271764
107  -10.1295727301092  2.89730175774738
108  -10.4616318397406  3.10312924888306
109  -10.7189072080665  3.39954602472971
110  -10.8845699362922  3.75933760289699
111  -10.9547784139893  4.15349261743477
112   -10.937612164687  4.55716060183957
113  -10.8493373423002   4.9533451189391
114  -10.7094965475011  5.33401604766213
115  -10.5358899520418  5.69929611222076
116   -10.342929302506  6.05240507170097
117  -9.95627800040325  6.69788417271148
118  -9.47645851148442  7.19846034148964
119  -8.93910512670343  7.63824762535015
120  -8.38131353661814  8.05100946949801
121  -7.81661868921983  8.47089565492086
122  -7.05102072301969  9.06484767402856
123  -6.31940140124937  9.72730300856002
124  -5.62642170507397  10.4676351735177
125  -4.99635867529712  11.2704515537532
126  -4.43635101699903  12.1219840972351
127  -3.93842519012744  13.0073436285209
128  -3.48849368613944   13.896836039809
129  -3.05643369356459  14.7676651148909
130  -2.59884796757405  15.6042845895711
131  -2.17587683620449  16.9796708397278
132  -1.29005805941847  17.6286313364736
133  -0.243590169929477  17.9652496191175
134  0.839909879417698  17.9487716764177
135   1.86543255960965  17.6511317641504
136   2.81601236386177  17.1748460195421
137   3.70804191399533   16.600757061283
138   4.56613537852819  15.9814853733758
139   5.41126499968872  15.3498056135571
140   6.25568559626817   14.724051256315
141   7.10439400149937  14.1076220696081
142   7.62834077801422  13.7302420004425
143   8.15184930481297  13.3528021320416
144   8.67044915656256  12.9748984658821
145   9.15660063510076  12.6131936675456
146   9.53256355877302  12.3251227255884
147   10.1428549584221  11.7797963617103
148    10.605352070037  11.2459776038272
149   10.9518950504366  10.7119697679138
150   11.2011154089415  10.1677643261441
151   11.3588748750206  9.60477047374119
152   11.4190481335877  9.02416391582603
153   11.3705796554917  8.43902054118139
154   11.2047762243393  7.87219113114707
155    10.920511071849  7.35243901369446
156   10.5269525168371  6.90977456628949
157   10.0438027748408   6.5705646080532
158   9.49908185708231  6.35313642964644
159   8.92486075164658  6.26495193637044
160   8.35219834630889  6.30227157071331
161   7.80693792970373   6.4521981363592
162   7.30734900135736  6.69602565256867
163   6.86361887886792   7.0127363249108
164   6.47871100146935  7.38192114367898
165   6.15002754680774  7.78577911356015
166   5.87134318571727  8.21011233795274
167    5.6345719114579  8.64445749686923
168   5.43110857345821  9.08164075865885
169     5.252682694533   9.5170646770392
170   5.09180255914837  9.94796439094494
171    4.9419090281324  10.3727629347432
172    4.7973804574586  10.7905809607112
173   4.65342633986387  11.2008791269442
174   4.50603380521717  11.6032453135797
175   4.35176354527978  11.9972134840451
176   4.18785585474287    12.38225461696
177   4.01182606121315   12.757594866879
178   3.82196606890541  13.1224502861493
179   3.61644513341132  13.4756015804351
180   3.39454030018571    13.81609862307
181   3.15487131061332  14.1422145955874
182   2.89767107094535  14.4530229155471
183   2.62194029765536    14.74626286379
184   2.32878130178627  15.0212203984404
185    2.0176565835294  15.2751694151114
186   1.69034800226857  15.5077277993224
187   1.34692780308287  15.7159299340588
188  0.989594415013507   15.899742116041
189  0.619120554546351  16.0562954979605
190  0.237882002186003   16.185829441617
191  -0.152674974372998   16.285898636079
192  -0.55013682571318  16.3569177563565
193  -0.952517693850134  16.3970934210075
194  -1.35741805944999  16.4069707273577
195  -1.76251223627766  16.3855113206243
196  -2.16544187473491  16.3334147743375
197  -2.56375823107254  16.2503906520559
198  -2.95519160384172  16.1373480466337
199  -3.33736383012002  15.9946626863836
200  -3.70816788652482  15.8234942991789
201  -4.06544799441054  15.6247653896444
202  -4.40734615221143  15.3998894846311
203  -4.73203906067932  15.1502036418256
204  -5.03800015445196  14.8773367365598
205  -5.32381438943753  14.5829061191569
206    -5.588353883285  14.2686828223925
207  -5.83066007420012  13.9364307919631
208  -6.05005022675631  13.5879652174785
209  -6.24604757114681  13.2250636939084
210  -6.41843930883674  12.8494722229725
211  -6.56723708960258   12.462850433042
212  -6.69270458670569  12.0667542722545
213  -6.79533618530178   11.662596477037
214  -6.87586869462537  11.2516203643086
215  -6.93527246159111  10.8348668737341
216  -6.97475955246109  10.4131458119561
217  -6.99578794317006  9.98700558381138
218  -7.00007868914661  9.55670406735952
219  -6.98964103952481  9.12217956506202
220  -6.96681524686829  8.68302306347088
221  -6.93433696464711  8.23845393455426
222  -6.89543397244909  7.78730455052386
223  -6.85396715482061   7.3280253527866
224  -6.81463221017125  6.85873272340188
225  -6.78323892674549  6.37733988914518
226  -6.76707720236996  5.88183754456853
227  -6.77535009307402  5.37082376682141
228  -6.81958656094112  4.84440955369097
229  -6.91382397805705  4.30561483630936
230  -7.07418275346309  3.76226283567889
231  -7.31731983224169  3.22911228960791
232  -7.65731880657999  2.72953118576029
233  -8.10105757590787  2.29558814414931
234  -8.64298253686769  1.96541536416393
235  -9.26106572590046  1.77739036548557
236   -9.9159776830347  1.76186580218622
237  -10.5551158017504  1.93242907281398
238  -11.1218706269021  2.27995318608771
239  -11.5677152273114   2.7729660246427
240  -11.8620597734847  3.36529554073136
241  -11.9954527468539  4.00819278486406
242  -11.9747455228793  4.66247348311469
243  -11.8118727279095  5.30618008245432
244   -11.511757964005  5.93320461457763
245  -11.0684973640547  6.54328917791839
246  -10.4638480844006  7.14298408935014
247  -10.0984009654931  7.44455797168344
248  -9.65711205068338  7.79311832143194
249  -9.19975607165003  8.14451854637381
250  -8.73948191570565  8.49541796712584
251  -8.28394448985177   8.8472676462565
252  -7.48892316713325   9.4905462350425
253  -6.75916377790102  10.1550637388207
254  -6.09076371958054   10.868070020178
255  -5.48434525848692   11.640334606453
256   -4.9288393970059  12.4851954494634
257  -4.42171238494283   13.383192119238
258  -3.94063540645054  14.3111745128454
259  -3.44357978559717  15.2456522823122
260  -2.87435475178673  16.1547436673023
