// Id               X                Y
  1  -0.0933926021139984  2.19461906110577
  2  0.827007713876323  2.18539942351492
  3   1.73392775841249  2.09938542664821
  4   2.64670199420691  1.97463375150863
  5   3.55280504739052  1.86161714559881
  6    4.4625086685524  1.79611223437636
  7   5.37175836456193  1.77929412674718
  8   6.27683811731869  1.79183115284436
  9   7.17622339609717  1.79321339905656
 10   8.06801997862269  1.73566593453998
 11   8.94619493504238  1.55643117522383
 12   9.39529443191202  1.34054463347496
 13   9.78658122830096  1.00003534001125
 14   10.0202870095769 0.462015113832857
 15   9.87937160987084 -0.0496525821419198
 16   9.14193941948784 -0.291899070825636
 17   8.41027135400122 -0.139069750206523
 18   8.17812391824564 -0.0695490167068944
 19   8.11057357455095 -0.0477955341778945
 20   8.05850832732502 -0.0305962564535636
 21   8.00941142907932 -0.0140385784313857
 22    7.9520890005138 0.00566659272495605
 23    7.8815268051853 0.0304560468950127
 24   7.79648822719834 0.0610316428484748
 25   7.69746323082028 0.097487077490265
 26   7.58555947577626 0.139613112266546
 27   7.46202077118074 0.187035381997635
 28   7.32802215922855 0.239279226650549
 29   7.18459046269476 0.295809638036311
 30   7.03260255116123 0.356053243709403
 31   6.87283714556341 0.419404395252377
 32   6.70603441080125 0.485229566827503
 33   6.53292002946052 0.552885272316403
 34   6.35420029177472 0.621744475768551
 35   6.17055443855229 0.691218677410847
 36   5.98263070378862 0.760772038356956
 37    5.7910430209713 0.829928938559696
 38   5.59636719356537 0.898276427206815
 39   5.39913704503669 0.965462752405915
 40   5.19984133291968  1.03119313116766
 41   4.99892195484263  1.09522385751899
 42   4.79677363726007  1.15735567820139
 43   4.59374502746677  1.21742713447485
 44   4.39014094227081  1.27530833146962
 45   4.18622545441593  1.33089539207614
 46   3.98222549412755   1.3841056982215
 47   3.77833467377848  1.43487392123975
 48   3.57471707205413  1.48314878927534
 49   3.37151070760549   1.5288905231325
 50   3.16883037519899  1.57206887841197
 51   2.96676943270273  1.61266174115542
 52   2.76540009944218  1.65065421163639
 53   2.56477199807995  1.68603805553477
 54   2.36490917406893  1.71881130606911
 55   2.16580663476869  1.74897771006953
 56   1.96742825307284  1.77654570811501
 57   1.76970812770666  1.80152679378159
 58   1.57255672356941  1.82393339344171
 59   1.37587139380682  1.84377671272809
 60   1.17954894668163  1.86106512482624
 61   0.98349680948905  1.87580352430932
 62  0.787639754665715    1.887993700995
 63  0.591920962027685  1.89763540211202
 64  0.396298476128763  1.90472755858017
 65  0.200739687867736  1.90926923748587
 66  0.00521655614960633  1.91126015835536
 67  -0.190297023711485  1.91070088085862
 68  -0.385826154440138  1.90759287063788
 69  -0.581395938092503  1.90193854529094
 70  -0.777034344625182  1.89374120345198
 71  -0.972777485537904  1.88300461843553
 72  -1.16867596723517  1.86973215405422
 73  -1.36479960441218  1.85392551834698
 74  -1.56123771326568   1.8355835603296
 75  -1.75809362841951  1.81470164251599
 76  -1.95547431951662  1.79127198127087
 77  -2.15347790005693  1.76528499327645
 78  -2.35218248468832  1.73673130579685
 79  -2.55163901383236  1.70560388245517
 80  -2.75186886636052  1.67189977717144
 81  -2.95286528945771  1.63562129056988
 82  -3.15459668749682  1.59677660062349
 83  -3.35700983564456  1.55538012735535
 84  -3.56003176815005  1.51145292600625
 85  -3.76356989891325  1.46502333420654
 86  -3.96751049545529  1.41612800675385
 87  -4.17171586025952  1.36481341156379
 88  -4.37602057562755  1.31113784589518
 89  -4.58022708356856  1.25517404902753
 90  -4.78410080227768  1.19701251360176
 91  -4.98736496673851  1.13676561251112
 92   -5.1896954211589  1.07457264530335
 93  -5.39071566194695  1.01060585303752
 94  -5.58999250043432 0.945077338756552
 95   -5.7870327525612 0.878246648193957
 96  -5.98128134169331 0.810428503472629
 97  -6.17212110938311 0.741999846849322
 98  -6.35887449307705 0.673404969854386
 99  -6.54080717776829 0.605157115933329
100  -6.71713432531618 0.537834516082301
101  -6.88703243462402 0.472067972837005
102  -7.04966466678296 0.408515868165027
103  -7.20421876111396  0.34782731676655
104  -7.34991680033645 0.290612178069322
105  -7.48595859981383 0.237436916705576
106   -7.6114403107889 0.188832425187238
107  -7.72531601688511 0.145289040149369
108  -7.82644336870318 0.107227195727416
109  -7.91376973818745 0.0749302454220923
110  -7.98680148542143 0.048397048493572
111  -8.04666183419726 0.027014208539219
112  -8.09819858873234 0.00889243528219307
113  -8.15278974262316 -0.00999183845115054
114  -8.22386404134314 -0.0340626137419583
115  -8.46540284760484 -0.111128451221304
116  -9.19671363046563 -0.286004122501867
117   -9.9448460272807 -0.0737534590757475
118  -10.1083308262976 0.430431728049979
119  -9.90011155964555 0.975646538250415
120  -9.52346029526045  1.33138283763731
121  -9.08265677481132   1.5621959357292
122  -8.20963387813823  1.76214642422263
123  -7.31940272811635  1.82969211692971
124  -6.42110146446184  1.82951945828751
125  -5.51741484272782  1.81128532089981
126  -4.60958162119879  1.81701182316821
127  -3.70093933760056  1.86845066779372
128  -2.79603951790759  1.96863021636147
129  -1.89113383040348  2.08429126640528
130  -0.990676211694753  2.13771288644269
131  -0.0762048535788052  2.78185556657527
132  0.848834724969225  2.76548628051635
133   1.77200829286558  2.68991911305814
134   2.69093202714838  2.58263297058409
135   3.60887880839923  2.47870146153982
136   4.52927159194385  2.41282022616105
137   5.45519766169072  2.39377325354737
138   6.38997373373027  2.40193510977793
139   7.34495873150491  2.38921976577776
140   8.38296807570694  2.25978359243003
141   9.37034680963781  1.87833526681468
142   9.89713528409358  1.46957389070657
143   10.2947010761681 0.963169154009806
144   10.5262761563143 0.488637207215576
145   10.6730842695208 0.00155522587058916
146   10.7754616140145 -0.637935730257581
147   10.6891400131226 -1.45511009560226
148   10.5222047852789 -1.81808524854226
149   10.2778613514345 -2.14679387497565
150    9.9807585203024 -2.41541414563401
151   9.64616939003443 -2.62366531840035
152   9.29255636667262 -2.77227278536235
153   8.93591383456761 -2.86703822192306
154   8.58722067235262 -2.91689354107593
155   8.25271845179724  -2.9313441902266
156   7.93521822817467 -2.91896891802666
157   7.63536497473219 -2.88687423920012
158   7.35258000612931 -2.84067271723883
159    7.0856789874874 -2.78468001041803
160   6.83322553362251 -2.72216193567733
161   6.59369631118253 -2.65555412700854
162   6.36555147571185 -2.58663901840687
163   6.14728699042489 -2.51669449793775
164   5.93748186791647 -2.44662109229123
165   5.73482596944008 -2.37704429838988
166   5.53813002612511 -2.30839297644931
167   5.34632650017906  -2.2409584787761
168   5.15846626130357 -2.17493878020651
169   4.97371311218353 -2.11047085221584
170   4.79133704586677 -2.04765383129923
171   4.61070670656092 -1.98656505301221
172   4.43128136560079 -1.92727064848331
173   4.25260265191023 -1.86983208802678
174   4.07428623510659 -1.81430979046234
175   3.89601362862673 -1.76076468921015
176   3.71752425369707 -1.70925845291204
177   3.53860788720174 -1.65985289738113
178   3.35909762122064 -1.61260899650567
179   3.17886350656497  -1.5675858004682
180   2.99780714432268 -1.52483949342812
181   2.81585760162602 -1.48442275442678
182   2.63296907522355 -1.44638450219359
183   2.44912056706967 -1.41076998783723
184   2.26431734030001 -1.37762105543733
185   2.07859311684823 -1.34697627061077
186   1.89201117194948 -1.31887060828377
187   1.70466222706705 -1.29333455941805
188   1.51665780351925 -1.27039283073915
189   1.32811941309307 -1.25006311827422
190   1.13916589512271 -1.23235554029991
191  0.949902318010159 -1.21727312210874
192  0.760413450694953 -1.20481331897923
193  0.570763003116403 -1.19497016443424
194  0.380997553088236 -1.18773645094983
195  0.191152510641254 -1.18310546197071
196  0.00125738747891643 -1.18107207266448
197  -0.188661049521469 -1.18163332019031
198  -0.378577304430154 -1.18478864813465
199  -0.568465606683656 -1.19053992589634
200  -0.758296505525839 -1.19889114460645
201  -0.948031078489763 -1.20984757013698
202  -1.13761409156686 -1.22341421304441
203  -1.32696884504843  -1.2395937431505
204  -1.51599650316607 -1.25838428473923
205  -1.70458128612417 -1.27977767994958
206  -1.89260067540607  -1.3037586840382
207  -2.07993786979306 -1.33030519881436
208  -2.26649306719556 -1.35938924349609
209  -2.45219098341866 -1.39097812016057
210  -2.63698381288502 -1.42503526666325
211  -2.82085062125465 -1.46152054952918
212  -3.00379513964766 -1.50039006326772
213  -3.18584389954743 -1.54159570900127
214  -3.36704595854168 -1.58508486414496
215  -3.54747465754804    -1.63080036901
216   -3.7272312883936 -1.67868092719501
217  -3.90645032430678 -1.72866190336287
218  -4.08530587671241 -1.78067642044163
219  -4.26401914782926 -1.83465659435751
220  -4.44286675020951 -1.89053467495622
221  -4.62218982052722 -1.94824376774258
222  -4.80240386429109 -2.00771768080585
223  -4.98400924502014 -2.06888926818578
224  -5.16760218888088 -2.13168641939871
225  -5.35388611566828  -2.1960245663841
226  -5.54368301272533 -2.26179422921507
227  -5.73794439743116 -2.32884167873686
228  -5.93776108179454 -2.39694022960766
229  -6.14437027231163 -2.46574895292533
230  -6.35915697490636 -2.53475463259345
231  -6.58364269787473 -2.60319141475712
232  -6.81944746405247 -2.66993160777553
233  -7.06821704172296 -2.73334641464209
234  -7.33154421396895 -2.79114826363721
235  -7.61090484466312 -2.84021862083058
236  -7.90753690433195 -2.87640126512991
237  -8.22214778349027 -2.89425899108258
238  -8.55435405813774 -2.88685438038203
239  -8.90177332688553 -2.84571118466838
240  -9.25875245929308 -2.76125756126367
241  -9.61498928391944 -2.62419265235842
242  -9.95498746417305 -2.42800312125379
243  -10.2602468638917 -2.17124861197211
244  -10.5153863840191 -1.85386511923006
245  -10.6939839988453 -1.50367328317764
246  -10.8149478274034 -0.699004765798671
247  -10.7411630798045 -0.0556775236409859
248  -10.6161477991421 0.437539471968891
249  -10.4055384573551  0.92118083854108
250  -10.0283321122593  1.44353384945009
251  -9.51521773467457  1.87095482116611
252  -8.53674588189983  2.27845145488888
253  -7.49745664168239  2.42284645584329
254  -6.53883007640336  2.43865672487385
255  -5.60284611014754  2.42547490026965
256  -4.67642817153846  2.43375031589792
257  -3.75560034904227  2.48555470128112
258  -2.83716648408251  2.57485827259955
259  -1.91777551496652  2.67095798312962
260  -0.996355179755507  2.74527516649677
