// Id               X                Y
  1  -0.103057297599099  3.33921902242684
  2  0.826086400514314  3.30124623653259
  3   1.75538990394303  3.17907004594208
  4   2.67459997546618  2.98032236056654
  5   3.54617442810754  2.73041166110075
  6   4.42579407704149  2.50707322461677
  7   5.31440378115081  2.31768819376092
  8    6.2071691924314  2.15549825224737
  9   7.09692633910858  1.99575095087296
 10   7.97599054264767  1.80774178617868
 11   8.84079603915067   1.5536330886968
 12   9.29230504769776  1.32718640294795
 13   9.70090460057014 0.993168141435703
 14   9.98532423703685 0.438355981727519
 15   9.87335895628814 -0.0936568156274029
 16   9.15547085844352 -0.355600691470097
 17   8.62598277603998 -0.26568494783529
 18   8.50930810956581 -0.231733631033416
 19   8.45099343261928 -0.212896414867331
 20   8.39500836122866 -0.19364292913521
 21   8.34000969851095 -0.173655859157999
 22   8.28050550437827 -0.150829194149145
 23   8.21132795097487 -0.122775773904186
 24   8.12981183882453 -0.0876741048472365
 25   8.03532198635082 -0.0443338081367146
 26   7.92839291817827 0.00795713421624908
 27   7.81008218751817 0.0695309505321941
 28   7.68159224637024 0.140396554353489
 29   7.54411132860513 0.220250801018373
 30   7.39883697891822 0.308434725354386
 31   7.24710606621635 0.403855121615097
 32   7.09035846342847 0.505043902351485
 33   6.92961370001438 0.610587654012784
 34    6.7652242533924 0.719410522196274
 35   6.59719714406697 0.830645950721242
 36   6.42541367689077 0.943533107417615
 37   6.24971631359747  1.05738297490372
 38   6.06995787545027  1.17156096015629
 39   5.88603353634132  1.28547608702355
 40   5.69790034995922  1.39857516895686
 41   5.50558645909659  1.51034095152206
 42   5.30919172080736  1.62029295574734
 43   5.10888167156982  1.72798957510606
 44   4.90487696668206  1.83303010459769
 45   4.69744041887656   1.9350557634582
 46   4.48686349839606  2.03374925881932
 47   4.27345371953054  2.12883287495775
 48   4.05752384062862  2.22006537306955
 49   3.83938334079262  2.30723813202683
 50    3.6193322591344  2.39017098200359
 51   3.39765720040354  2.46870812961901
 52   3.17462910209248  2.54271449029489
 53   2.95050219034913  2.61207265821238
 54   2.72551340847772  2.67668066140617
 55   2.49988151110819  2.73645055364252
 56   2.27380507290791  2.79130776172211
 57   2.04745900012525  2.84119092881934
 58   1.82098983761283  2.88605181190971
 59   1.59451109188852  2.92585470708613
 60    1.3681004760473  2.96057501051438
 61   1.14180082326293  2.99019689911324
 62  0.915625197369858  3.01471056978809
 63  0.689565028050104  3.03410972674688
 64  0.463598965690695  3.04838988281034
 65  0.237700228531834  3.05754764453697
 66  0.0118412360211855  3.06158075424062
 67  -0.214004481845197  3.06048846739589
 68  -0.43986227890226  3.05427187389292
 69  -0.665757047979044  3.04293394385736
 70  -0.891713114507336   3.0264793163849
 71  -1.11775202152994  3.00491409685691
 72  -1.34388742302673  2.97824609796572
 73  -1.57011746883036   2.9464859247297
 74  -1.79641643680767  2.90964900081349
 75   -2.0227281015936  2.86775818590069
 76   -2.2489627898398  2.82084632531861
 77  -2.47499850614839  2.76895812570081
 78  -2.70068492412884  2.71215112247034
 79  -2.92584832364731  2.65049593894413
 80  -3.15029586216758  2.58407629330506
 81  -3.37381841127344  2.51298922606061
 82  -3.59619200221792   2.4373458829144
 83  -3.81717841570644  2.35727301435919
 84  -4.03652561593086   2.2729152148634
 85  -4.25396869253724   2.1844378346544
 86  -4.46923185852262  2.09203043713587
 87  -4.68203192074753  1.99591062180705
 88   -4.8920835013801  1.89632797455305
 89  -5.09910612065272  1.79356784944899
 90  -5.30283302429218  1.68795464981928
 91  -5.50302133412267  1.57985429370839
 92  -5.69946272168788  1.46967565505271
 93  -5.89199338540796  1.35787098922989
 94  -6.08050171050102  1.24493567221605
 95  -6.26493167251505  1.13140795444701
 96  -6.44527983796768   1.0178697657803
 97  -6.62158363713081  0.90494983008578
 98   -6.7938981024291  0.79333050600866
 99  -6.96225647141247 0.683760341889252
100   -7.1266017159449 0.577078451435488
101  -7.28660983271598 0.474296309309917
102  -7.44128063393885 0.376798013561033
103  -7.58908697466446 0.286134058119619
104  -7.72873679016973  0.20344253732772
105  -7.85916929460678 0.129415018637679
106  -7.97936295381397 0.0644098017347058
107  -8.08828654626202 0.00850207611215466
108  -8.18502973232661 -0.0385302715570025
109  -8.26915131070458 -0.0772784221787586
110  -8.34129930716237 -0.108838113150306
111  -8.40406996017039 -0.134993285290972
112  -8.46253960577761 -0.158236786831634
113  -8.52226620760256 -0.180839935818734
114  -8.58467219725568 -0.203198145370505
115  -8.71318918586345 -0.245120079755647
116  -9.24200420419924 -0.357256638814693
117  -9.97496039095426 -0.134374630666916
118  -10.1161866000364 0.387722584239948
119  -9.86424762005665 0.952187830045999
120  -9.47215296421556  1.30330867556719
121  -9.03018513286356  1.54480620920607
122  -8.17214954757937  1.81714320305391
123  -7.29590055069697  2.01197937713205
124  -6.40713144850835  2.17049320531498
125  -5.51405846209846  2.32597807784073
126  -4.62394245734757  2.50573683949523
127   -3.7418817253763  2.71903433569426
128  -2.86815999659898  2.96105291053366
129  -1.96064012224635  3.16126301179044
130  -1.03111827493974  3.26629431971912
131  -0.103920235014733  3.92427782597761
132  0.840338787931454  3.88781651014934
133   1.77850531496118  3.76464764742038
134   2.70861405257478  3.57124381825636
135    3.6302409146237  3.34104461520368
136   4.54385873012363  3.11585414689756
137   5.46079903455594  2.91995059016562
138   6.38681409071817  2.74913151756852
139   7.32643627292702  2.57155037931166
140   8.33378897623038   2.3048199543192
141   9.28962379834046  1.84826014149984
142   9.80783249209483  1.42615199649287
143   10.2199600664075 0.917289275535171
144   10.4801007249145 0.439437840184758
145   10.6581314264012 -0.0356854853840126
146    10.819390738845 -0.683820058402397
147   10.7837325849861 -1.79989875483415
148   10.5842443033372 -2.20478441008679
149   10.3110530078018 -2.53436933489763
150   9.99092864464346 -2.78642395409182
151   9.63959326410116 -2.96804866863656
152   9.27279492131223 -3.08465409459601
153   8.90564900303598 -3.14359491467269
154   8.54927342264678 -3.15462098038248
155   8.20999205859934 -3.12798818254927
156   7.89039606979863  -3.0729169590005
157   7.59076096168382  -2.9970002491117
158   7.31013030465088 -2.90621709529922
159   7.04694465956606 -2.80516053590264
160   6.79929073696132 -2.69725134629376
161   6.56492385663129 -2.58486790302225
162   6.34139925031886 -2.46952097664942
163   6.12666731258108 -2.35231018858517
164     5.919358187119 -2.23427038311312
165    5.7184752511296   -2.116342547172
166   5.52319313570619 -1.99932793011867
167   5.33278878919012 -1.88388749535776
168    5.1466065347145 -1.77055037920124
169   4.96403594167899 -1.65972523043342
170   4.78449772494387 -1.55171411245625
171   4.60743576872598 -1.44672872058143
172   4.43231405434599 -1.34490819113263
173   4.25861732597564 -1.24633739220308
174   4.08585428238582 -1.15106446760892
175   3.91356212539961 -1.05911655347476
176   3.74131145417248 -0.970512906170958
177   3.56871072508441  -0.8852750561029
178   3.39540974506552 -0.803433945971326
179   3.22110189430849 -0.725034278521344
180   3.04552496963459 -0.650136477052434
181   2.86846070936829 -0.578816762666379
182   2.68973322272994 -0.511165892756397
183   2.50920671866375 -0.447287098791188
184   2.32678310788102 -0.387293709656373
185   2.14240019020085 -0.33130683804891
186   1.95603112773706 -0.279453326045793
187   1.76768559552688 -0.231863897380303
188   1.57741231037023 -0.188671208510093
189   1.38530171279309 -0.150007355821543
190   1.19148689352967 -0.116000521218519
191  0.996141024869125 -0.0867708430794579
192  0.799470790943401 -0.0624260855477517
193  0.601707020915673 -0.0430579195081446
194  0.403094853645576 -0.0287394380572663
195  0.203885661542183 -0.0195240402139353
196  0.00433191160626847 -0.0154453495644946
197  -0.195315077651316 -0.0165176193226008
198  -0.394805369852009 -0.0227361287151781
199  -0.59388995122329 -0.034077295676336
200  -0.792321075826042 -0.0504985256829048
201  -0.989854835674959 -0.0719381215785836
202   -1.1862568022992 -0.0983157934672927
203  -1.38131040088934 -0.129534282734919
204  -1.57482627912104 -0.165482269471339
205  -1.76665017287189 -0.206038202781603
206  -1.95666729541848 -0.251074305154125
207  -2.14480284441518 -0.300460021242375
208  -2.33101982375029 -0.354064573423575
209  -2.51531610235936 -0.411758760392688
210  -2.69772232758972 -0.473416409645656
211  -2.87830146391099 -0.538915888818585
212  -3.05714991566086 -0.608141888625763
213  -3.23439971464138 -0.680987450116396
214  -3.41022111690679 -0.757356011221507
215  -3.58482502798755 -0.837163118275461
216  -3.75846483100545 -0.920337376708646
217  -3.93143735151615 -1.00682018370459
218  -4.10408283340661 -1.09656378552708
219  -4.27678392930204 -1.18952723661627
220  -4.44996384415913   -1.285669917559
221  -4.62408392695692  -1.3849424072031
222  -4.79964118883101 -1.48727470662963
223  -4.97716643134005 -1.59256207011339
224  -5.15722388000098 -1.70064897729768
225  -5.34041341839911 -1.81131202101225
226  -5.52737671461679 -1.92424260925436
227  -5.71880881625481 -2.03903032743567
228  -5.91547747854246 -2.15514760501708
229  -6.11825457856114 -2.27193628387812
230  -6.32817282372044 -2.38859907974566
231  -6.54658974951322 -2.50422844365924
232   -6.7755910796589 -2.61789936322187
233  -7.01781903719509 -2.72836820784456
234  -7.27564062568099 -2.83347483097329
235  -7.55106265053762 -2.92998879470903
236   -7.8457818036328  -3.0135073161131
237  -8.16097742653331 -3.07824140322416
238  -8.49673706234374 -3.11676578891273
239  -8.85102923919191 -3.11993932336286
240  -9.21829980006086 -3.07737114023389
241  -9.58830463703073 -2.97881626149636
242  -9.94664841505243 -2.81606721836569
243  -10.2780691014768 -2.58277914393431
244  -10.5675509768355 -2.27081114362798
245  -10.7867729985974 -1.88469362028077
246  -10.8877725975555 -0.774435450329003
247  -10.7631200493598 -0.118016867600729
248  -10.6113473915486 0.365703060371505
249  -10.3774030913441 0.853888053484085
250  -9.98966546509335  1.38078906100043
251  -9.48716669302197  1.82289694151995
252  -8.54226173278421  2.30470926586384
253  -7.53427485800802  2.58402826393371
254  -6.59127485898498  2.76269735604458
255  -5.66298153632746  2.92759883847526
256  -4.74387686907388  3.11415690608271
257  -3.82880576369996  3.32971585853879
258  -2.90699172386287  3.55326649288109
259  -1.97620617111444  3.74533930089902
260  -1.04142601915388  3.87277779861462
