// Id               X                Y
  1  -0.10465467433331  3.60676761204138
  2  0.808936536664436  3.57045398760237
  3   1.72426182426355  3.45766244214856
  4   2.64942140046865   3.2650649842781
  5   3.57603969537742  2.99130805787449
  6   4.45680458716066   2.7047351455563
  7   5.34922506403632  2.45769758643272
  8   6.24974852783286  2.25388747451493
  9   7.14934480713353  2.07255480845038
 10   8.03745055625608  1.87264066884262
 11    8.9024613648386   1.5914540547899
 12     9.348903736896   1.3405718702306
 13   9.73909230304909 0.979085235671336
 14   9.98616132516288 0.398501228006292
 15   9.83445075995186 -0.133267743848458
 16     9.104379878529 -0.351414850410874
 17   8.58365836560757 -0.231093442153213
 18   8.47645286656815 -0.191860501793627
 19   8.41626815516335 -0.167668837056287
 20   8.35875048689156 -0.14309441771275
 21   8.30149534909498 -0.117270802595122
 22    8.2375987532684 -0.0868475517579411
 23   8.16208839357377 -0.0487884868798234
 24   8.07322141662921 -0.00116306735828632
 25   7.97138309216899 0.0569927381554682
 26   7.85798505482413 0.125939356378095
 27   7.73477116450157 0.205391378157248
 28   7.60347509245509 0.294608512965398
 29    7.4656940606607 0.392453339212484
 30   7.32282852277602 0.497481629412724
 31   7.17595388695954 0.608141584619969
 32   7.02568305347159 0.723014403647104
 33   6.87219185544391 0.840920258920007
 34   6.71536380109942  0.96089097284403
 35   6.55492130957403  1.08211552050296
 36   6.39050999998442   1.2038994804481
 37   6.22175460326089  1.32563480240832
 38   6.04830253039414   1.4467740296274
 39   5.86986133896176  1.56680836694522
 40   5.68623036924327  1.68525158561945
 41   5.49732399033867  1.80163180546808
 42   5.30318357131345  1.91549160432632
 43   5.10397688074417  2.02639476702186
 44   4.89998598842132  2.13393646243435
 45   4.69158670692392   2.2377533598088
 46   4.47922351636914  2.33753102816047
 47   4.26338375501132  2.43300730989165
 48   4.04457400478844  2.52397162434034
 49   3.82330049482023  2.61026100319898
 50   3.60005430375905  2.69175403327366
 51   3.37530130257584   2.7683638997195
 52   3.14947613761001  2.84003154820252
 53   2.92297903352883  2.90671974484083
 54   2.69617374214309  2.96840856360627
 55   2.46938464693575  3.02509255382549
 56   2.24289114212264  3.07677947367225
 57   2.01691840699752  3.12348998756129
 58   1.79162588787362  3.16525722894815
 59   1.56709761031398   3.2021249500782
 60   1.34334003020961   3.2341434907156
 61   1.12029144426516  3.26136398087018
 62  0.897842126349885  3.28383236377671
 63  0.675859394321207  3.30158510843306
 64  0.454210073562352  3.31464767364263
 65  0.232774820476078  3.32303552522098
 66  0.011452444849073  3.32675657956492
 67  -0.20984443829438  3.32581367710219
 68  -0.431199207904874  3.32020596250376
 69  -0.652702448896812  3.30992861627022
 70  -0.874460350102077  3.29497105747163
 71  -1.09659639112898  3.27531439703098
 72  -1.31924358678912   3.2509294174118
 73  -1.54252701120536  3.22177645468445
 74   -1.7665399384436  3.18780802595349
 75  -1.99132026278902  3.14897391288817
 76  -2.21683449424866  3.10522723086918
 77  -2.44297333823209  3.05652960568586
 78  -2.66955752940521  3.00285428584428
 79  -2.89634884024151  2.94418728642371
 80   -3.1230609770105  2.88052760060195
 81  -3.34936738215442  2.81188771404516
 82  -3.57490560796401  2.73829531193781
 83  -3.79927959156755  2.65979656703952
 84  -4.02206172019828  2.57646097827806
 85  -4.24279645725289   2.4883874348087
 86  -4.46100691584378   2.3957109562116
 87  -4.67620531577829  2.29860935287192
 88  -4.88790776092373  2.19730885999672
 89   -5.0956531639582  2.09208768709985
 90  -5.29902537020018  1.98327650805926
 91  -5.49767661516055  1.87125532438745
 92  -5.69134954000145   1.7564469345943
 93  -5.87989436356665  1.63930834626717
 94  -6.06327780738794   1.5203225614614
 95  -6.24158122167468  1.39999376377148
 96  -6.41498695970578   1.2788486083045
 97  -6.58375379798522  1.15744503457762
 98  -6.74818310627291  1.03638837075993
 99  -6.90857641579365 0.916353580627627
100  -7.06518060777938 0.798113842866979
101  -7.21810752332963 0.682580553748007
102  -7.36720930338678 0.570860468226943
103  -7.51193586931475 0.464296568133445
104  -7.65130044494534 0.364389564887617
105  -7.78400524036667 0.272581971782487
106  -7.90856735674893 0.190064348460576
107  -8.02338017074046 0.117677579906497
108  -8.12682941410097 0.055845042996554
109  -8.21761001319103 0.00446680365084386
110  -8.29538458015971 -0.037273368042722
111  -8.36187193292357 -0.0712176097079262
112  -8.42201714209767 -0.100502308012427
113  -8.48302244995351 -0.128794844073274
114  -8.54780193782672 -0.157248447108078
115  -8.66878630495949 -0.20594239100054
116  -9.18912973827155 -0.348897006910764
117  -9.93351035904941 -0.173498787480157
118  -10.1191770052974 0.335626806710686
119  -9.92512511008489 0.916009650528471
120  -9.56922618280938  1.29758199001478
121  -9.14705948067569   1.5686877659633
122  -8.30149954812206  1.87436234704906
123  -7.42847843429933   2.0798742545012
124  -6.54442512706998   2.2517856563517
125  -5.66089987391111  2.43671210831693
126  -4.78711033200622  2.66221308739612
127  -3.92743716607719  2.93104485937664
128  -3.06049155151808  3.19529915459161
129  -2.15693255105646  3.39918599872923
130  -1.12558095333954   3.5211213340529
131  -0.106294419477312  4.19190497788437
132   0.87034292588361  4.16181335442833
133   1.83434291249444  4.03919289090564
134   2.77962476272003  3.83680476300775
135   3.70494344101988  3.57674754877529
136   4.62027855981687  3.29930860169732
137   5.53588030284301  3.04770203358399
138   6.46445745697385  2.83440094937018
139   7.41806605676619  2.62976494498844
140   8.42964608074116  2.34590311083686
141   9.37929619118168  1.86255004303912
142   9.87606090771646  1.41146278712093
143   10.2525794247129 0.866121280605624
144   10.4758884554923 0.355899508311183
145   10.6188790755895 -0.133329610598597
146   10.7657013881722 -0.792481679414396
147   10.7518327258981 -1.76394391315248
148   10.5622361339865 -2.16872904106654
149    10.296550395208 -2.49019264921348
150   9.98174251529191 -2.73215749130893
151    9.6349617796001 -2.90194473008768
152   9.27378834742301 -3.00528276500178
153   8.91394878174032 -3.05059388934914
154    8.5660190730104 -3.04851298734551
155   8.23540624852122 -3.00960871139601
156   7.92390690685106 -2.94298976088787
157   7.63123552745052 -2.85594801429099
158   7.35603084549665 -2.75410642121807
159   7.09640224704313 -2.64169571949025
160   6.85024182480898 -2.52183561016441
161   6.61551291952627 -2.39684653776494
162   6.39049821302387 -2.26856811255721
163   6.17385028639892 -2.13855922473592
164   5.96449964959873 -2.00816573402616
165   5.76156315957886 -1.87853870939498
166   5.56429062709547 -1.75064748903524
167   5.37203249632492 -1.62529235803502
168   5.18421363053962 -1.50311478253704
169   5.00030791873019 -1.38460556797219
170   4.81981403694394 -1.27011336810092
171   4.64223513013115 -1.15985643076457
172   4.46706532498476 -1.05393942212619
173   4.29378456512135 -0.95237526950728
174   4.12186132595213 -0.855110199572065
175    3.9507612694981 -0.762049252539861
176   3.77995925607165 -0.673079641218016
177   3.60895224070504 -0.588090059613117
178   3.43727111884473 -0.506984989524583
179   3.26449024496846 -0.429693894012616
180   3.09023396024768 -0.356175794205639
181    2.9141799924453 -0.286420098722774
182   2.73606007373056 -0.220444744195492
183   2.55565861946671 -0.158292758963672
184   2.37281083302012 -0.100028293584501
185   2.18740202412365 -0.0457329420838195
186   1.99936991860408 0.00449724227774401
187   1.80871080192012 0.0505542490259084
188   1.61548818416759 0.0923209785998931
189   1.41983989756072 0.129675576890591
190   1.22197800400867 0.162497784578786
191   1.02217763121925  0.19067656575078
192  0.820755713545597 0.214117093391591
193  0.618045509376064 0.232745056483177
194  0.414374407324752 0.246507350964444
195  0.210050460745852 0.255369715897696
196  0.00535937992974318 0.259312881155555
197  -0.199429487280909 0.258328993910038
198  -0.404051542341685 0.252419685047395
199  -0.608233862772664 0.241596434119329
200  -0.811685029201613 0.225883093699134
201  -1.01409188437546 0.205319648905201
202  -1.21512609282724 0.179965655169738
203  -1.41446091716213 0.149901582189959
204  -1.61179499815893 0.115226805653216
205  -1.80687655164912 0.0760542613919863
206  -1.99952067686257 0.0325032264056903
207  -2.18961566831192 -0.0153076530190824
208  -2.37711952294578 -0.0672655862316634
209  -2.56205160988896 -0.123266954327002
210  -2.74448473087872 -0.183219587662226
211  -2.92454053204877 -0.247045073984728
212  -3.10238860602673 -0.314681720362481
213  -3.27824799543468 -0.386088152850973
214  -3.45238931947504 -0.461247014504218
215  -3.62513595923185 -0.540167904237705
216  -3.79686321301917 -0.622888555473996
217  -3.96799482906407 -0.709473235481722
218  -4.13899677449894 -0.800007434904782
219   -4.3103685353408 -0.894588130141069
220  -4.48263271129133 -0.99330927864227
221  -4.65632419070466 -1.09624277931678
222  -4.83198071187859 -1.20341587111515
223  -5.01013698534382 -1.31478671657944
224  -5.19132453585438 -1.43022045335653
225   -5.3760788120116 -1.54946795568851
226  -5.56495390877403 -1.67214871161138
227  -5.75854385598122 -1.79773773849221
228  -5.95750865623557 -1.92555493324961
229  -6.16260417706539 -2.05475453643504
230   -6.3747191560191 -2.18431331170965
231  -6.59493182081927 -2.31301851675294
232  -6.82460378635304 -2.43945251270532
233  -7.06548110470348 -2.56193416501689
234  -7.31966618284646 -2.67833112780342
235  -7.58939463330232 -2.78574232842428
236  -7.87676085003063 -2.88017070972186
237  -8.18341800502295  -2.9562194064641
238  -8.51005930183477 -3.00678546714774
239  -8.85545499188702 -3.02285634675353
240  -9.21494814602759 -2.99375970196732
241  -9.57881722759037 -2.90841628621568
242  -9.93203392895395 -2.75761105349691
243  -10.2574083971784 -2.53484391556278
244  -10.5385965401944   -2.232167454954
245   -10.748325350727 -1.84818362966048
246  -10.8229530810656 -0.88124602635072
247  -10.7195477968073 -0.214759166337097
248  -10.6105349473435 0.283633249588916
249  -10.4272547102996 0.796046607172032
250  -10.0880081384673  1.36144785622008
251  -9.61501274714827  1.83774544198372
252  -8.68440649528424  2.35236646361971
253  -7.67635984671168  2.64640965404254
254  -6.72529015503217  2.84381089186404
255  -5.79461526000985  3.04114984895409
256  -4.87244454738668  3.27379354881013
257   -3.9405447581952  3.53626379009841
258  -2.98835687015394  3.78746259484805
259  -2.02129689215717  3.99117992438028
260  -1.06701458353218  4.12793905289717
