// Id               X                Y
  1  -0.0972575624917552  5.09046966932803
  2   0.97450044609566  5.06466104018124
  3   2.02667121868227  4.89503244427655
  4   3.03430985111041  4.63529602946083
  5   4.02027337315043  4.26807370551713
  6   4.93602295429268   3.7896161930917
  7   5.73804382081873  3.32555728362695
  8   6.57336088628322  2.92150151778195
  9   7.43876368071411  2.57755870511372
 10   8.30710602764326  2.23407128905472
 11   9.13079061762126  1.77807055938958
 12   9.51853229899995  1.39284675074934
 13    9.7715183625941 0.894413384467858
 14   9.77431124113773 0.360704423674538
 15   9.49218853414782 -0.0575485999509118
 16   8.77705869958215 -0.183783389803467
 17   8.33917058545068 -0.0326768132947268
 18   8.24471710607844 0.0175248570202868
 19   8.17967598045837 0.0560900028725186
 20   8.11644152191876 0.0967436071393975
 21   8.05387877504479 0.140131711661491
 22   7.98714451880947 0.189876647526943
 23   7.91221942575713 0.250090926566973
 24   7.82754129021692 0.323726585966375
 25   7.73349750954639 0.412466930158217
 26   7.63144943333414 0.516932926682518
 27    7.5229826750676 0.636942456743621
 28   7.40954026979044 0.771599900670049
 29   7.29260774723659 0.918895086600109
 30     7.173783896515  1.07553455084694
 31   7.05380958006976  1.23846241419438
 32   6.93245710426394  1.40552403249983
 33   6.80908998687471  1.57505516172264
 34    6.6829271984315   1.7456907793631
 35   6.55314575322143  1.91631032649043
 36   6.41893041835515  2.08600397597456
 37   6.27949718377909  2.25404060036909
 38   6.13410307683287  2.41983394850665
 39     5.982052467618  2.58290545225064
 40    5.8227096155548  2.74284236678375
 41     5.655524968446  2.89925265935898
 42   5.48007596198948  3.05172376106753
 43   5.29611380680112  3.19979640344877
 44   5.10360229372988  3.34296197657449
 45    4.9027367530674  3.48068318483316
 46   4.69393848946002  3.61242953477149
 47   4.47782738827286  3.73771598545356
 48   4.25517998439534  3.85613493493535
 49   4.02688161702418  3.96737610641289
 50   3.79388017154366  4.07123336852738
 51   3.55714648359048  4.16760067918305
 52   3.31764373101038  4.25646084644118
 53   3.07630562004437  4.33787098286342
 54   2.83402098215187  4.41194794021154
 55   2.59162036454819   4.4788560981236
 56   2.34985825516128   4.5387988338194
 57   2.10938345397622   4.5920137201372
 58   1.87069236812655  4.63876969204886
 59   1.63407047157409  4.67936205532662
 60    1.3995476462205  4.71409972088021
 61   1.16690776740742  4.74328207057114
 62  0.935770052253149  4.76717161752422
 63  0.705706127747237  4.78597473284458
 64  0.476334287943891  4.79983743904391
 65  0.247361959598304  4.80885304287912
 66  0.0185831050024712  4.81307394857692
 67  -0.210150869222878  4.81252165027535
 68  -0.438971956526837   4.8071918842576
 69  -0.668039068472224  4.79705390502032
 70  -0.897576971401887  4.78204401223388
 71  -1.12790046275891  4.76205473995295
 72  -1.35940760420885  4.73692338697138
 73  -1.59252432331576  4.70642657303732
 74  -1.82760050687224  4.67028812259264
 75  -2.06479631242809  4.62820130671643
 76  -2.30401708659948  4.57985626276109
 77  -2.54492018808592  4.52496090320212
 78  -2.78696651049448  4.46325146182112
 79  -3.02947772864635  4.39449654913526
 80  -3.27167901392504   4.3185001909497
 81  -3.51272544623861  4.23510737977419
 82   -3.7517183683024  4.14421339592017
 83  -3.98771901043068  4.04577650470218
 84  -4.21976523844763    3.939832448557
 85  -4.44689527347792  3.82650816953855
 86  -4.66818016195054  3.70603138999832
 87    -4.882764519391  3.57873229960166
 88  -5.08991252372838   3.4450341122448
 89  -5.28905351364347  3.30543114950233
 90  -5.47981952777827  3.16045652322131
 91  -5.66206672264435  3.01064581276494
 92  -5.83587484313818  2.85650671918702
 93  -6.00152415332813  2.69850515899654
 94  -6.15945625138561  2.53707392271449
 95  -6.31023061910937  2.37264208328265
 96  -6.45448864744958  2.20567659372935
 97  -6.59293064033494  2.03672651275019
 98   -6.7263031438521  1.86646438867884
 99  -6.85538852515612  1.69572388400958
100  -6.98098656527116  1.52553498213665
101  -7.10387584617862  1.35715992826507
102   -7.2247336957686  1.19214304241586
103  -7.34393656820577  1.03245629407627
104  -7.46104101216834 0.880939341751928
105  -7.57456767877514 0.741109849135543
106  -7.68302345350868 0.615439936081942
107  -7.78513201811738 0.505067407052013
108  -7.87950986638027 0.410357846993111
109   -7.9649261399195 0.330882865912387
110  -8.04102508156421 0.265124016716743
111   -8.1092838342664 0.210178042229276
112  -8.17362431954704 0.161851425747567
113  -8.23886986034209  0.11623753243062
114   -8.3062733535018 0.072656730991305
115    -8.406472410527 0.0143661028740203
116  -8.83941129553052 -0.156240615175742
117  -9.56163004945949 -0.0691373528016182
118   -9.8672846868714 0.331469249959335
119  -9.89411612070692  0.86289013621489
120  -9.66651834240039  1.37027728518355
121  -9.29438190861046  1.76854627891993
122  -8.48078317865888  2.24195414900724
123  -7.61450404141968   2.5917207157945
124  -6.74710970815722  2.93428722126429
125  -5.90636220193162  3.33268482014429
126  -5.09633575967634  3.78941529683442
127   -4.2170475002135  4.23982013813591
128  -3.23267622966389  4.61595402403961
129  -2.23909912608888  4.87274815135335
130  -1.16982807598601  4.99791640668595
131  -0.0967346346911752  5.67853563860209
132  0.938632035292671  5.64806998551598
133   1.97319495177764  5.48898128170213
134     2.988820222971  5.22534705081414
135   3.97563919055076  4.85724621173451
136   4.92961765594083  4.40141102837227
137   5.86005439307963  3.92667816641056
138   6.74498990094977  3.51338422873083
139   7.63557451418721  3.16165413962872
140   8.52437395756388  2.80815786415672
141   9.34789348691636  2.31974958126032
142   9.74695670634889  1.90032481451232
143   10.0532067595901  1.33507695287631
144    10.199509978389 0.674467972479855
145   10.2421118013677 -0.00646601093851884
146   10.3442820365322 -0.652503007894792
147   10.4019083434636  -1.6037496216308
148   10.2209991116737 -2.02180818816747
149    9.9608265962017 -2.33318450793386
150   9.65329673543583 -2.55511647738033
151    9.3167422354496  -2.6993630570079
152   8.96678519625566 -2.77407695851177
153   8.61725823792192 -2.78795479702574
154    8.2781162080386 -2.75092468327563
155   7.95510093580778 -2.67287130758701
156   7.65079987307938 -2.56265910472948
157   7.36588721358079 -2.42788477937867
158   7.09990971835385 -2.27495799041938
159   6.85134727575556 -2.10895328824647
160   6.61769971559938  -1.9334195498127
161   6.39671731250364 -1.75122384879752
162   6.18675971169949   -1.565100870147
163   5.98639014910692 -1.37749329780606
164   5.79424222620872 -1.19046781407051
165   5.60902670998218  -1.0057267273729
166   5.42956200826898 -0.824650664874628
167   5.25480295617255 -0.648351364560165
168   5.08386061145847 -0.477722381862136
169   4.91600946890773 -0.313478756629397
170   4.75067852538438 -0.156179473373721
171   4.58742352095901 -0.00623134224623779
172   4.42588243466576 0.136119464121125
173   4.26572324005932 0.270795522944422
174   4.10659653976833 0.397883529938209
175   3.94810312083483 0.517611673801103
176   3.78978028531681 0.630312124274464
177   3.63110514539466 0.736376461943664
178   3.47150991793751 0.836212243315469
179   3.31040348337371 0.930206659230456
180   3.14719420698014   1.0187002981673
181   2.98131043682761  1.10197148608521
182   2.81221668903486  1.18022992694537
183   2.63942514709214   1.2536173699277
184   2.46250382572063  1.32221259594882
185   2.28108473063682  1.38603801800045
186   2.09487747839802  1.44506565876194
187   1.90369517378024  1.49922143062577
188   1.70749712736074  1.54838881428471
189   1.50644249397257  1.59241605060827
190    1.3009287377163  1.63113272068947
191   1.09157526920347  1.66437744035134
192  0.879136737290362  1.69202746331205
193  0.664383959757157  1.71401464527929
194  0.448011428280583  1.73032069699339
195  0.230599490200657  1.74095813545747
196  0.0126234103494691  1.74594811898846
197  -0.205510012833856  1.74530320670867
198  -0.423413523282704  1.73901876427579
199  -0.640667658303582  1.72707417555928
200  -0.856773813426753  1.70944373046293
201  -1.07112271949897  1.68611558343998
202  -1.28299506990598  1.65711415385514
203  -1.49161283290314   1.6225168427633
204  -1.69624223635873  1.58245405717224
205  -1.89631037696477  1.53708887325596
206  -2.09147624323997  1.48658653483134
207  -2.28163071892706  1.43108903964348
208  -2.46685101018672   1.3707012382226
209   -2.6473480911114  1.30548502801532
210  -2.82342793840679  1.23545587984382
211  -2.99546901037992  1.16057831791674
212  -3.16391035978346  1.08075986297316
213  -3.32924377327954 0.995844854387339
214  -3.49200501959712 0.905610527940378
215  -3.65276144183163 0.809768052504583
216  -3.81209506519473   0.7079710991529
217  -3.97058208843224 0.599833923862871
218  -4.12877121778184 0.484959754648764
219   -4.2871648008577 0.362978350997142
220   -4.4462078655609 0.233589031999126
221  -4.60629038973186 0.0966028299420922
222  -4.76776664279473 -0.0480240031137632
223  -4.93099168325351 -0.200171381285462
224   -5.0963695831214 -0.35955243462659
225  -5.26440313829238 -0.525719343381014
226  -5.43573411569055 -0.698066042280328
227  -5.61116735930656 -0.875817278602798
228  -5.79167794736661 -1.05799985717088
229  -5.97840410741995 -1.24339848296092
230  -6.17262961126649 -1.43050302478762
231  -6.37576146400521 -1.61745750595363
232  -6.58932004434166 -1.80202789661094
233  -6.81502302969429 -1.98164059226779
234  -7.05517080013291  -2.1535631160336
235   -7.3126426273303  -2.3145838873976
236  -7.58955921112657 -2.45991706511769
237  -7.88683735309247  -2.5831546212144
238  -8.20426884780457  -2.6765627812772
239  -8.53983983978063  -2.7310365958883
240  -8.88849818189339  -2.7362814593691
241  -9.24101664282636 -2.68171000362539
242  -9.58417690361796 -2.55774775187396
243   -9.9028775819113 -2.35534533248864
244  -10.1796603988116 -2.06171111042963
245  -10.3834319722136 -1.65904704209686
246  -10.3806015739114 -0.709746013467983
247  -10.3139847540937 -0.0592581018219106
248  -10.3085280981449 0.623088425523688
249  -10.1954911542909  1.29054251567473
250  -9.91288275322889  1.86937365057742
251  -9.52409432383024  2.30541958114428
252  -8.70937109300576  2.81134582511597
253  -7.82168469733299  3.17203552293643
254  -6.92992831035591  3.52267192150392
255  -6.04602285173418  3.92987833549691
256  -5.11639024693691  4.39850263151208
257  -4.16222039485773  4.84207458538305
258  -3.17449736502283  5.20365301115844
259  -2.15653569060768  5.45546940023517
260  -1.13449263765138   5.6049950241888
