// Id               X                Y
  1  -0.00127335182134097 -0.372857056724071
  2   0.93865950693168 -0.292140301090964
  3   1.84440115137798 -0.0595903944200048
  4   2.69608527241233 0.294072073616105
  5   3.49434532815741 0.727067005675249
  6    4.2587192452893  1.19294196241845
  7   5.01967311289393   1.6439067517675
  8    5.8053713454403  2.03290611543766
  9   6.63158346443484  2.31688764193527
 10   7.49658601097317  2.40839442898663
 11   8.34051829076378  2.17757821019571
 12   8.67300169744532  1.84403605743942
 13   8.82867687725628  1.40129843898209
 14   8.75822659221891 0.937174103586609
 15   8.48606231629478 0.552138861723058
 16   7.91276030642296 0.234815125669408
 17   7.91217652877385 0.234487402857176
 18   7.75863141813013 0.147963374846222
 19    7.5903995260365 0.0510411870978043
 20   7.42197007811127 -0.0485245502454862
 21     7.259429712903 -0.146434091074906
 22   7.10296290189828 -0.241430148003632
 23   6.95163978433623 -0.333014621147725
 24   6.80270624104619 -0.421987613119384
 25   6.65480978201537 -0.508417927860776
 26   6.50776643114793 -0.591768836789887
 27   6.36117769493151 -0.671708550184546
 28   6.21461689000035 -0.747975817800385
 29   6.06764252693311 -0.82035743972394
 30   5.91987182335861 -0.88864574300986
 31   5.77094721288841 -0.952658127151577
 32   5.62057711671753 -1.01222447990454
 33   5.46851446116582 -1.06720530036035
 34   5.31459405009844 -1.11748712339635
 35   5.15871618772365 -1.16299977256064
 36   5.00085430691104 -1.20372300513813
 37   4.84103699610211 -1.23969795610427
 38   4.67935136818893 -1.27102863930235
 39   4.51593305957501 -1.29788310707705
 40   4.35095376337059 -1.32049005228367
 41   4.18461696004648 -1.33912987358393
 42    4.0171488728745 -1.35412355211688
 43   3.84877965420774 -1.36582006475536
 44   3.67972884126504 -1.37458202963975
 45   3.51019634781445 -1.38077177466436
 46   3.34035883470375 -1.38473956626944
 47   3.17036946557346 -1.38681498810718
 48   3.00035961849846 -1.38730164538371
 49   2.83044125311652 -1.38647484437456
 50    2.6607092673695 -1.38458160729787
 51   2.49124348689509 -1.38184230046501
 52   2.32211021697733 -1.37845319830608
 53   2.15336339925807 -1.37458942070087
 54   1.98504548688108 -1.37040782335335
 55   1.81718815527644 -1.36604956254524
 56   1.64981292736044 -1.36164217928538
 57   1.48293169240778 -1.35730114461485
 58    1.3165469674218 -1.35313087698248
 59    1.1506516662705 -1.34922528994213
 60  0.985228221273576 -1.34566796178028
 61   0.82024718049983 -1.34253204064629
 62  0.655665749900623 -1.33988000438173
 63  0.491426937100954 -1.33776337844514
 64  0.327459864840091 -1.33622248241057
 65  0.163681530145631 -1.33528623851849
 66  -5.01162107286943e-08  -1.3349720472338
 67  -0.163681633453066 -1.33528572021998
 68  -0.327459977874839 -1.33622145941709
 69  -0.491427067996832 -1.33776187750858
 70  -0.655665909185838 -1.33987806448258
 71  -0.82024738192923 -1.34252971159933
 72  -0.985228482603421 -1.34566530236947
 73  -1.15065201004258 -1.34922236562361
 74  -1.31654742185021 -1.35312775724995
 75  -1.48293229245007 -1.35729790019444
 76  -1.64981371596583 -1.36163887941028
 77   -1.8171891846518  -1.3660462726437
 78  -1.98504681939647 -1.37040460355697
 79  -2.15336510744806 -1.37458632563269
 80  -2.32211238197692 -1.37845027861924
 81  -2.49124619484824 -1.38183960655482
 82  -2.66071260385058 -1.38457919546773
 83  -2.83044529718159 -1.38647278546485
 84  -3.00036444022045 -1.38730003537846
 85  -3.17037513560068 -1.38681395937503
 86  -3.34036545796924 -1.38473929658145
 87  -3.51020413944167 -1.38077248865482
 88  -3.67973825463382 -1.37458398404294
 89  -3.84879156183815 -1.36582350540609
 90  -4.01716474013655 -1.35412863237633
 91  -4.18463891634687 -1.33913653423033
 92  -4.35098434810346 -1.32049789761087
 93  -4.51597456195992 -1.29789134259494
 94  -4.67940460612564 -1.27103619010717
 95  -4.84110011848271 -1.23970378997044
 96  -5.00092199359546 -1.20372662777639
 97  -5.15878118942255 -1.16300133266805
 98  -5.31464973741799 -1.11748707167191
 99  -5.46855760745071 -1.06720361366021
100  -5.62060600077264 -1.01222120476885
101  -5.77096166865147 -0.952653428621494
102  -5.91987073002607 -0.88864102866338
103  -6.06762902862191 -0.820353098787851
104  -6.21459620878793 -0.747971812594663
105  -6.36115907765727 -0.671703037852136
106  -6.50775190597393 -0.591763807438663
107  -6.65478935897943 -0.50842218668071
108  -6.80266281670959 -0.422014022368023
109  -6.95157170192971 -0.333065993877312
110  -7.10289156575038 -0.241493690970104
111  -7.25935848723085 -0.146506610293555
112   -7.4219140251683 -0.0485949212085152
113  -7.59036186066967 0.0509771193017789
114  -7.75857373087994 0.147886132742189
115  -7.91211664966668 0.234409938095761
116  -7.91270041479464 0.234737660585984
117  -8.48599635980915 0.552079223234705
118  -8.75814461236017 0.937123906379669
119  -8.82858017468311  1.40124851523211
120  -8.67290097909036  1.84398201903998
121  -8.34042471218802  2.17752558677211
122  -7.49650828885839  2.40837794707366
123  -6.63150191734477  2.31693515594586
124  -5.80526106300689  2.03304781821357
125  -5.01951531111833  1.64413556868019
126  -4.25849710699433   1.1932474789189
127  -3.49403922223351 0.727435638699794
128  -2.69566020077522 0.294476875595926
129  -1.84375546594059 -0.0591651379644939
130  -0.937644025801748 -0.291532770389627
131  -0.000988814453301882  0.24716330404148
132  0.888032947990012 0.326438807557972
133   1.75180978915402  0.55458685452338
134   2.57650726776422 0.904088418738868
135    3.3665074953773  1.33574230288791
136   4.14389319728971   1.8042930598141
137   4.94134267770702  2.26109248678158
138   5.79540530688295  2.65280348492871
139   6.79975088906623  2.91506698109536
140   7.88543324840639  2.88178672556154
141   8.85254934393359  2.37581592856473
142   9.24175933910118  1.81657297273395
143   9.38465887736529  1.20592484661619
144   9.33912910696422 0.696858970024614
145   9.17711446555365 0.237828233044897
146   8.93966712591699 -0.163660007562879
147   8.61316146491124 -0.516896201492101
148   8.43034673670227 -0.671623058640397
149   8.26866961366399 -0.792814751078642
150   8.11465411532358 -0.898908913868072
151   7.96115816138857 -0.998320462204909
152    7.8065204433735 -1.09399793988849
153   7.65023573356291   -1.187412583413
154   7.49378230717643 -1.27837760626818
155   7.33738379639667 -1.36709058263173
156   7.18022325668231  -1.4540121792889
157   7.02183995290178 -1.53913896234581
158   6.86191342014574 -1.62221379909752
159    6.7002287665652  -1.7028186839318
160   6.53659344356781 -1.78048048146492
161   6.37087164883583 -1.85470489365365
162     6.202947885789 -1.92503401744196
163   6.03275569657782 -1.99106216021328
164   5.86024871955372 -2.05246640314491
165   5.68542706702295  -2.1090061430845
166   5.50833885568445 -2.16052820369889
167   5.32910338233157 -2.20696238575731
168   5.14790465067068 -2.24832416837783
169   4.96498690315641 -2.28471272804499
170    4.7806407218759 -2.31630689333469
171    4.5951722297132 -2.34335875826893
172   4.40887479707151 -2.36618105573368
173   4.22201536943598 -2.38512949566731
174   4.03482630155159 -2.40058456185062
175   3.84750286972791 -2.41293461008662
176   3.66020496017914 -2.42256166863428
177   3.47306164825826 -2.42983061853586
178     3.286176722422 -2.43508188433155
179   3.09963390590149 -2.43862729820468
180   2.91350096116737 -2.44074856463092
181   2.72783244371144 -2.44169766533483
182   2.54267116648972 -2.44169856659228
183   2.35804863462639 -2.44094966842189
184   2.17398476423098 -2.43962654114482
185     1.990487212354  -2.4378846104666
186   1.80755063848711   -2.435861566587
187   1.62515623637642 -2.43367937709041
188   1.44327190340935  -2.4314458698378
189   1.26185339007687 -2.42925591396103
190   1.08084659426062 -2.42719226044522
191     0.900190814254 -2.42532611153346
192  0.719822392820672  -2.4237174808404
193   0.53967799737657 -2.42241539608392
194  0.359696894472255 -2.42145799004072
195  0.179821897814884 -2.42087252134959
196  -9.7705964225419e-07 -2.42067536134971
197  -0.179823848866235 -2.42087197469124
198  -0.359698836269322 -2.42145691086017
199  -0.539679923635017 -2.42241381237652
200  -0.719824297259139 -2.42371543392264
201  -0.900192690900647 -2.42532365527105
202  -1.08084843796412  -2.4271894602793
203  -1.26185519714259 -2.42925284575944
204  -1.44327367220951 -2.43144261858194
205  -1.62515796773331 -2.43367603538263
206  -1.80755233566221 -2.43585823293135
207  -1.99048888058569 -2.43788138723671
208  -2.17398640997613 -2.43962353211109
209  -2.35805026492897 -2.44094697566505
210  -2.54267278930309 -2.44169628658723
211   -2.7278340704729 -2.44169588395119
212  -2.91350261383362 -2.44074735076289
213   -3.0996356317697 -2.43862669568264
214  -3.28617862250768 -2.43508190159389
215  -3.47306392736187 -2.42983121508637
216  -3.66020801170145 -2.42256273624667
217  -3.84750740800633 -2.41293594489836
218   -4.0348335558165 -2.40058582063511
219  -4.22202732862676 -2.38513012786937
220  -4.40889448058969 -2.36618020288928
221  -4.59520388297518 -2.34335512423151
222   -4.7806898577379 -2.31629860252656
223   -4.9650599552322 -2.28469723843713
224  -5.14800825098197 -2.24829831038712
225  -5.32924290717503 -2.20692270162282
226  -5.50851653916285 -2.16047166727975
227  -5.68563868668027 -2.10893167112437
228  -5.86048103887622 -2.05237668749438
229  -6.03298578821664 -1.99096519627904
230  -6.20314892848573 -1.92494199034908
231  -6.37101766280639  -1.8546323843711
232  -6.53666645039217 -1.78044062224625
233  -6.70021708187374 -1.70282257768911
234  -6.86181566525314  -1.6222673415676
235   -7.0216626708238 -1.53924288034377
236  -7.17998954689809 -1.45415667240001
237  -7.33713339030715 -1.36725453715392
238  -7.49356068424237 -1.27853447890483
239  -7.65006582078986 -1.18754712510273
240  -7.80639216636224 -1.09411364780851
241  -7.96107056004738 -0.99841527559428
242  -8.11458790815433 -0.898992298028868
243  -8.26861415611273 -0.792891479603542
244  -8.43032837497319 -0.671669945697326
245  -8.61315214903293 -0.516927744529793
246  -8.93964155332774 -0.163682062907937
247  -9.17707071282959 0.237815058353029
248  -9.33906458316976 0.696851640443194
249  -9.38457349345009  1.20591525989505
250  -9.24167076083653   1.8165214942319
251  -8.85247134179123  2.37575854170351
252  -7.88538182625164  2.88175491380528
253   -6.7997238410588  2.91509886465918
254  -5.79548596401336  2.65295325786353
255  -4.94144560108287  2.26135802339017
256  -4.14400358840004  1.80466575301904
257  -3.36664222535867  1.33621133955778
258  -2.57670862221899 0.904629081254935
259  -1.75215296250689 0.555116816414515
260  -0.888566986802376 0.326711894530027
