// Id               X                Y
  1  -0.104398435800108  3.96516345175737
  2   0.84344243644997  3.92476592431004
  3   1.79833341342083    3.793037405661
  4   2.76048671064593  3.56820851623536
  5   3.65371980184141  3.29760395354677
  6   4.50437759043461  2.96702672305142
  7   5.36660531851511  2.66879391139269
  8   6.24186381984489  2.41002254321941
  9   7.12138900382939  2.17513383757416
 10   7.99360022156026  1.93127502089739
 11   8.84691040481533  1.62560523715626
 12   9.28985876930852  1.37282538530891
 13   9.68356206038002  1.01757656355327
 14   9.95004831435554 0.451558659260563
 15   9.81774261249758 -0.110513791828172
 16   9.10365858922746 -0.350602490064871
 17   8.64872877800577 -0.262824254983424
 18   8.57358467817282 -0.238473411178382
 19   8.51533639537517 -0.217627398883823
 20    8.4582285137379  -0.1955038815589
 21   8.39868244222444 -0.170697721998495
 22   8.32998140963699 -0.139855949265343
 23   8.24823595297855 -0.10010893058141
 24   8.15277347544133 -0.0495688101679341
 25    8.0448224909216 0.0127685822468766
 26   7.92638191548332 0.0872019476986125
 27   7.79950385380928 0.173479310381967
 28   7.66594087813788 0.270930146979673
 29   7.52711884669915 0.378497675245402
 30   7.38434309326587 0.494639497310084
 31   7.23884041020254  0.61738492910244
 32   7.09133141930763 0.744859616683749
 33   6.94185017364591 0.875646952000819
 34   6.79004662108114  1.00866498225243
 35    6.6354175341056  1.14302768996074
 36   6.47739660201172  1.27799310151444
 37   6.31540091930001  1.41293274995577
 38   6.14886671434246  1.54730239802435
 39   5.97728321653634  1.68061243757703
 40    5.8002267517816  1.81240069114335
 41   5.61739256085647  1.94221199476569
 42     5.428619148384  2.06958828106489
 43   5.23390021139393  2.19407006024006
 44   5.03338190043733  2.31520679245759
 45   4.82734663258449  2.43257149796416
 46   4.61618730194956  2.54577481819177
 47   4.40037681386107  2.65447514969514
 48   4.18043753843919  2.75838342649931
 49   3.95691409605212  2.85726279263809
 50   3.73035144722362   2.9509244015071
 51   3.50127897717253   3.0392209142925
 52   3.27020031311194  3.12203916252891
 53   3.03758796947004  3.19929313377147
 54   2.80388145665867  3.27091810674843
 55   2.56948707792505  3.33686647444337
 56   2.33477723021091   3.3971055299168
 57   2.10008677331831  3.45161716693788
 58   1.86570438791706  3.50039897346129
 59   1.63185849106718   3.5434655718589
 60   1.39870061577619  3.58084852500579
 61   1.16629316885516  3.61259321558655
 62  0.934609948719369   3.6387523130303
 63   0.70355336804034  3.65937743823823
 64  0.472983335856749  3.67451195327441
 65   0.24274620065792  3.68418714007339
 66  0.0126933996966566  3.68842190282068
 67  -0.217313616600527  3.68722431823204
 68  -0.447408701105601  3.68059297892319
 69  -0.677729247902561  3.66851694565857
 70  -0.908419252347595  3.65097453497087
 71   -1.1396209876867  3.62793244914905
 72  -1.37145396931769  3.59934724249544
 73  -1.60398690594142  3.56517025481205
 74  -1.83721351451101  3.52535516521846
 75  -2.07104164631565  3.47986563761254
 76  -2.30529759966088  3.42868057236944
 77  -2.53974005337826  3.37179608478281
 78   -2.7740758314468  3.30922504977177
 79  -3.00797215812525    3.240995819208
 80   -3.2410637729264  3.16715154640706
 81  -3.47295589156649  3.08775097463387
 82  -3.70322508625566  3.00287098765926
 83  -3.93142023417395   2.9126108287833
 84  -4.15706533846987  2.81709763962701
 85  -4.37966560311617  2.71649276754851
 86  -4.59871773698603  2.61099807998319
 87  -4.81372502205099  2.50086130203589
 88   -5.0242171027311  2.38637922701718
 89  -5.22977366087742  2.26789767061372
 90   -5.4300501482415  2.14580741203003
 91  -5.62480271418903  2.02053620665824
 92  -5.81390870507395  1.89253821630342
 93  -5.99737902499557  1.76228356589418
 94  -6.17535955362906  1.63025161953141
 95  -6.34812070073692  1.49693135637088
 96  -6.51603648029782  1.36283069094479
 97  -6.67955615382578  1.22849425485297
 98  -6.83917144448952  1.09452720854011
 99  -6.99538007896262  0.96162221208007
100  -7.14864169486494 0.830588594516123
101  -7.29930710444255 0.702393520987145
102  -7.44743591427443 0.578275464303573
103  -7.59247833124957 0.459918677971323
104  -7.73334257796958 0.349229562139855
105  -7.86876757717526 0.247857731869016
106  -7.99736182042854 0.157047641266858
107  -8.11750069144495 0.0776488658678209
108  -8.22734423489814 0.0100887198067669
109  -8.32511529250554 -0.0457354937010398
110  -8.40974492131972 -0.090634417177115
111   -8.4819659619711  -0.1263694314103
112   -8.5456169961729 -0.155861509847254
113  -8.60731691405389 -0.182640948499506
114  -8.67045558465459 -0.20818526077629
115  -8.75318267940893 -0.238788712303383
116  -9.20627676058307 -0.350251218866816
117  -9.93720760447255 -0.158841991096461
118  -10.1101198804025 0.370705923489344
119  -9.89176267939577 0.954391628618045
120  -9.52166506999419   1.3333510435768
121   -9.0909365941697  1.60582828966117
122  -8.24440880641633  1.93118667341023
123  -7.37150647981891  2.17662494863539
124  -6.48687158660956  2.40178879599909
125  -5.60319892127559  2.64646682563612
126  -4.73007687762223  2.93084445050296
127  -3.86939852230254  3.25264366261065
128  -2.96797059287734  3.53831698357024
129  -2.00751795178797  3.77306308001877
130  -1.05496601951632  3.89078411363251
131  -0.131582635264438  4.55366750789624
132  0.845101149270964  4.51562032838171
133   1.81129334076614  4.38306892064437
134   2.76180902940076  4.16684941812074
135   3.70225643366149  3.88560685321894
136   4.63173503832105  3.56769046380554
137   5.54057258677376  3.26278364982078
138   6.45560101608577  2.99111932341334
139   7.39005105977524   2.7324685126012
140   8.38449755135124  2.40496730034272
141   9.32113713010517  1.90024707108419
142   9.81635959606139  1.44723645951061
143   10.1994861956295 0.903988006879225
144   10.4394435634148 0.381605075519253
145   10.5946847238329 -0.104039857973629
146    10.759835352202 -0.754376319745083
147   10.7799610238682 -1.94154145494567
148   10.5659205202911 -2.34378596820709
149   10.2804509170022 -2.65037748591845
150   9.94914016294748 -2.87355412973885
151   9.59061588330703 -3.02170497218092
152   9.22407781943486 -3.10242451873801
153   8.86485306942542 -3.12635612433847
154   8.52158205699807 -3.10534156645421
155   8.19753574032667 -3.04996418789537
156   7.89293431370027 -2.96867970417087
157   7.60665340001441 -2.86799244579341
158    7.3371276803448 -2.75292616936989
159   7.08263561948172  -2.6273875501211
160   6.84121409148889 -2.49429946518466
161   6.61069946721098 -2.35572335231599
162   6.38924675806995 -2.21329354779942
163   6.17558924408789 -2.06856784580532
164   5.96878852180626  -1.9230023436253
165   5.76804957977283   -1.777884052163
166   5.57267258057566 -1.63432282243354
167   5.38204031333191 -1.49326027728867
168   5.19560834662778 -1.35547889562284
169   5.01289021643431 -1.22160770165853
170   4.83343673989662 -1.09212526198372
171   4.65681253925863 -0.967363418952893
172   4.48257488981464 -0.847515964204874
173   4.31025952609017 -0.732654879871228
174   4.13937572477568 -0.622753939255449
175   3.96941032323528 -0.517717028299422
176   3.79983847451674 -0.41740748754691
177   3.63013820157602 -0.32167504315472
178   3.45980594340146 -0.230377928797124
179   3.28837087314146 -0.143399019313248
180    3.1154064854134 -0.0606558435131376
181   2.94053862119083 0.0178949135928896
182   2.76344967883906 0.0922573587191558
183   2.58387928419067 0.162399504159858
184   2.40162222751906 0.228258202120092
185   2.21652506878555 0.289744624641139
186   2.02848342491585 0.346749231312106
187   1.83744235857352  0.39914558421926
188   1.64340198867997 0.446793036115151
189   1.44642874903512  0.48953917160929
190   1.24666929563143 0.527223594343621
191   1.04436004662324 0.559684589429716
192  0.839824033396655 0.586768817319756
193  0.633451434998252 0.608341985744038
194  0.425669279351562 0.624297150167037
195  0.216912194314856   0.6345583325808
196  0.00760454459575939 0.639079766687284
197  -0.201842870456079 0.637843138841688
198  -0.411025392662432 0.630855483155058
199  -0.61953403268101 0.618149218891494
200  -0.826950400739834 0.599784046467966
201  -1.03285359582344 0.575848799092807
202  -1.23684069690554 0.546460635294716
203  -1.43855533420062 0.511759847605029
204  -1.63771338336138 0.471900875574587
205  -1.83411600312528 0.427042244557832
206  -2.02764775517493 0.377338352226642
207  -2.21826516331546 0.322934342444845
208  -2.40598351925012 0.263963379359601
209  -2.59086738942511 0.200544760135154
210  -2.77302652294118 0.132781539226411
211   -2.9526161617586 0.0607570855094705
212  -3.12983964306662 -0.0154692596972441
213  -3.30495117523907 -0.0958667267648515
214  -3.47825715270637 -0.180436867292446
215  -3.65011496313365 -0.269215384122314
216  -3.82092877703437 -0.362270913091799
217   -3.9911422813184 -0.459699737692842
218  -4.16122876708392 -0.56161566508822
219  -4.33167945265914 -0.668134718332657
220    -4.502991425206 -0.77935493669937
221  -4.67565706335271 -0.895332401159634
222  -4.85015711838269 -1.01605548413454
223  -5.02695956237601 -1.14141998467725
224  -5.20652563047553 -1.27120786761991
225  -5.38932311898576 -1.40507146379047
226  -5.57584525101185 -1.54252326969147
227  -5.76663204434887 -1.68292956630753
228  -5.96229104827622 -1.82550499484043
229  -6.16351616725959 -1.96930573087285
230  -6.37110768637107  -2.1132212134943
231  -6.58601209356702 -2.25597280291621
232  -6.80946954906866 -2.39616223367818
233  -7.04329492646274 -2.53233756958079
234  -7.28974935173918 -2.66271856493367
235   -7.5510848559736 -2.78474454481071
236  -7.82942261777426  -2.8948560791128
237  -8.12673494332042 -2.98829737209742
238  -8.44458397547622 -3.05876284217206
239  -8.78333163697754 -3.09792705564223
240  -9.14055607929816  -3.0951762569071
241  -9.50876205920514  -3.0382614825942
242  -9.87386179289068 -2.91554168840112
243  -10.2176948347053 -2.71797725485749
244  -10.5228188905901  -2.4355430543893
245  -10.7644391910574 -2.05493547843881
246  -10.8327607721875 -0.867372036381958
247  -10.7154822648548 -0.206395248137442
248  -10.5960800719585 0.288690056618478
249  -10.3979309594597 0.812476356910884
250  -10.0501580144808  1.37732309195452
251  -9.57752523468006  1.85458745651619
252  -8.65500464291382  2.38796374870272
253  -7.65900137346947  2.72440426495789
254  -6.71323266351782  2.97785693367293
255  -5.79259749280025  3.23571137711394
256  -4.88152681542672  3.52702307577328
257  -3.95809932209473  3.83807518282978
258  -3.00698489911529  4.12906833249433
259   -2.0516956386635  4.35674212208434
260  -1.09263481393808  4.49808362224564
