// Id               X                Y
  1  -0.0772334953794282 0.439335088175209
  2  0.847886576282016 0.447052414468789
  3   1.77767061481769 0.470203743316088
  4   2.70792188295072 0.503112894449676
  5   3.61940101350497 0.643092806550032
  6   4.49850930674548 0.911414542952686
  7   5.33047869282805  1.28667035285819
  8   6.12526769282515  1.71678474567879
  9   6.92120578904521  2.12916914608702
 10   7.76661562756834  2.40109281347216
 11   8.65512148388791  2.37454986904102
 12   9.09018107349227  2.15185818352899
 13   9.41861348410649  1.76757197169615
 14   9.52567313134826  1.24413712429678
 15    9.3097601389935  0.77155903486668
 16   8.62019061750176  0.53523876479298
 17   8.19309830812736 0.512543066493274
 18   7.87679021533485 0.492322811540199
 19   7.62443290588375 0.472852117406538
 20    7.5039246228686 0.462834676395572
 21   7.39833840890341 0.453806070504721
 22   7.28879026032254 0.444314386537296
 23   7.16646369630925 0.433704547654855
 24   7.02770067385469 0.421809791262567
 25   6.87201783960161 0.408801114835579
 26   6.70183803817817 0.395130675424279
 27   6.52187291876923 0.381406594131196
 28   6.33638045262246 0.368111874196353
 29   6.14799697023212 0.355512068326458
 30   5.95836404561586 0.343726740209928
 31   5.76858565928959 0.332785416247472
 32   5.57942530649289 0.322660467010815
 33   5.39141517022803  0.31328980342906
 34   5.20492701217083 0.304593010699682
 35   5.02021983293462 0.296482493826701
 36   4.83747188052697 0.288870867524399
 37   4.65680194955925 0.281675610336698
 38   4.47828336358778 0.274821783221373
 39    4.3019529352805  0.26824341360359
 40   4.12781642624112 0.261883984042006
 41   3.95585153048385 0.255696341313772
 42   3.78600914418643 0.249642251653024
 43   3.61821361239584 0.243691764573585
 44   3.45236268318205 0.237822504454371
 45    3.2883279427309 0.232018978790109
 46   3.12595644359177 0.226271967639812
 47   2.96507401632736 0.220578034711473
 48   2.80549039972415 0.214939174180147
 49   2.64700593497355  0.20936257992722
 50    2.4894192610801 0.203860499167512
 51   2.33253529916754 0.198450114575503
 52   2.17617283277749 0.193153390727653
 53   2.02017113378879 0.187996822372981
 54   1.86439527494569 0.183011032137832
 55   1.70873993303342 0.178230180970527
 56   1.55313155739996 0.173691173034284
 57   1.39752872245134 0.169432656217491
 58   1.24192032490971 0.165493840869279
 59   1.08632114671948 0.161913186168353
 60  0.930764397119989 0.158727038123774
 61  0.775291385145027 0.155968340318752
 62  0.619939465704877 0.153665560248562
 63  0.464730488632723 0.151841955841103
 64  0.309662536187302 0.150515236215708
 65  0.154707284761707  0.14969756605362
 66  -0.000186074334537694 0.149395768826751
 67  -0.155081222458348 0.149611545140394
 68  -0.310041825007591 0.150341556614042
 69  -0.46511864206135 0.151577318242333
 70  -0.620339915711329 0.153304956360139
 71  -0.775707453946698 0.155504981568475
 72  -0.931199281934346 0.158152259705603
 73  -1.08677792459428 0.161216324569459
 74  -1.24240197771404 0.164662081827752
 75  -1.39803817162415 0.168450849045014
 76  -1.55367168838227 0.172541606658535
 77  -1.70931358379199 0.176892317056308
 78  -1.86500516260842 0.181461191336794
 79  -2.02081969723158 0.186207821289198
 80  -2.17686197573011 0.191094129847818
 81  -2.33326602710639 0.196085121576897
 82   -2.4901912154465 0.201149438096435
 83  -2.64781683976837 0.206259745088918
 84   -2.8063354475005 0.211392998380987
 85  -2.96594523133321 0.216530654650345
 86  -3.12684206650932 0.221658904327648
 87  -3.28921188078763 0.226769007192069
 88  -3.45322405931778 0.231857803398364
 89  -3.61902642874986 0.236928454976088
 90  -3.78674205422097  0.24199144843115
 91  -3.95646769979143 0.247065862451529
 92  -4.12827346339224 0.252180879275271
 93  -4.30220289533054 0.257377493968915
 94  -4.47827286562711 0.262710348259227
 95  -4.65647249874933 0.268249576874074
 96  -4.83676053490174 0.274082495228315
 97  -5.01906039527817  0.28031486774471
 98  -5.20325193964963  0.28707136440951
 99  -5.38915834129383 0.294494623243946
100  -5.57652558927493 0.302742064857554
101  -5.76499074914676 0.311979221026281
102  -5.95403308039795 0.322367808727048
103  -6.14289873496342 0.334046062776917
104  -6.33048096745876 0.347097683674413
105  -6.51509708321402 0.361501867660985
106  -6.69395299971029 0.377040933388606
107  -6.86241340939713 0.393164732170591
108  -7.01552360765733 0.409084283289648
109  -7.15149818425457 0.424207172826501
110  -7.27302919617924 0.438462187332281
111  -7.38914692075831 0.452678993116882
112  -7.53043185149822 0.470693468648331
113  -7.85686389758118 0.515163941122919
114  -8.24567840349613 0.574493960664082
115  -8.65671131524892 0.654359603237838
116  -8.65671147029066 0.654359645035717
117  -9.29777577698932 0.911373237369153
118  -9.52553257499662  1.36047178818947
119  -9.45651114688758  1.87237588285931
120  -9.15424029047793  2.27198492999128
121  -8.72963002606358  2.51008480389925
122  -7.84189678598614  2.54266783239569
123   -7.0022828842325  2.25530571788165
124  -6.22030596791567  1.81535201839185
125  -5.44105633356435  1.35971478675156
126  -4.62303761892973 0.959407218013175
127  -3.75495882018629 0.667903166347416
128  -2.85163342050386 0.509763991778748
129  -1.93409355901248 0.473398658450833
130  -1.00365313561253 0.422058899625636
131  -0.0476527453360761  1.02483228343351
132  0.853536989353166  1.03426300682168
133   1.75424148274285  1.05546393139761
134   2.65292728756755  1.11381573201283
135   3.54136297975475  1.25839471803787
136   4.40476119025281  1.52488832537647
137   5.23708831880713  1.90050108042036
138   6.06340721948301  2.33288642724469
139   6.97951113647198  2.74587187072147
140   8.03008640069529  2.95442250388883
141    9.0756234942953  2.69747388503495
142   9.59373932496645  2.25164428832134
143   9.91126833663086  1.65960694102923
144   10.0296346508488  1.10385895188851
145    10.052192357049 0.573878034156445
146   10.0281849032786 -0.0981638041360583
147   9.59491419260932 -1.77677106986165
148   9.46881451585021 -1.90231727173863
149    9.3161635964429  -2.0269307057002
150   9.06635337082721 -2.18550557965822
151   8.79446650968115 -2.31401064074048
152   8.51985547248676 -2.41071839090047
153    8.2550864839138 -2.48060467734143
154    8.0066330381791 -2.53024482636739
155   7.77638278203774 -2.56552984428096
156   7.56243879524356 -2.59106594203032
157   7.36022650513215 -2.61016155904819
158   7.16547015603357 -2.62494695435799
159   6.97545702084437  -2.6367629109155
160   6.78845792525528 -2.64652032538755
161    6.6032904909281 -2.65488100166593
162   6.41912906424697  -2.6623464776669
163   6.23539605224491 -2.66930699016279
164   6.05168842900161 -2.67607009229314
165   5.86772622265437 -2.68287806188558
166   5.68331641426076 -2.68991901895155
167   5.49832783438311 -2.69733450469739
168   5.31267392260471  -2.7052250753121
169   5.12630116145282 -2.71365478618399
170   4.93918168464476 -2.72265505783749
171    4.7513090107826 -2.73222819909461
172   4.56269608934219 -2.74235074684447
173   4.37337490313361 -2.75297672573478
174   4.18339682105885 -2.76404090829558
175    3.9928328421542 -2.77546214372494
176   3.80177292346042 -2.78714680218558
177   3.61032379980234  -2.7989923393476
178   3.41860505997344 -2.81089092490027
179   3.22674364569506 -2.82273301401546
180   3.03486726965382 -2.83441069340374
181   2.84309742484695 -2.84582062010129
182   2.65154266216188  -2.8568663958696
183   2.46029268739739 -2.86746027484544
184   2.26941364554031  -2.8775241708986
185   2.07894479816184 -2.88698999717055
186   1.88889672741819  -2.8957994212503
187   1.69925125560517 -2.90390315111718
188   1.50996342952946 -2.91125988362695
189   1.32096606312454 -2.91783505914631
190    1.1321772406676 -2.92359958197025
191  0.943510638467931 -2.92852868414077
192  0.754887513185559 -2.93260111067259
193  0.566248094270355 -2.93579875876674
194  0.377559543105574 -2.93810679986677
195  0.188818092515633 -2.93951417610839
196  4.44097876107517e-05 -2.94001424750772
197  -0.188726922071643 -2.93960532652799
198  -0.377461310589277 -2.93829089214531
199  -0.566138060660339 -2.93607940563596
200  -0.754760893122414 -2.93298380793556
201  -0.943362576514526 -2.92902090810984
202  -1.13200277411409 -2.92421092725503
203  -1.32076006460706 -2.91857742160684
204   -1.5097205299929 -2.91214769259909
205  -1.69896575875385 -2.90495365350297
206  -1.88856253639219 -2.89703301773572
207  -2.07855538033836 -2.88843062759616
208  -2.26896206107856 -2.87919974160827
209  -2.45977170231049  -2.8694031157137
210   -2.6509449586426 -2.85911372888557
211  -2.84241591127935 -2.84841501523394
212  -3.03409548080553 -2.83740048145404
213  -3.22587621061539 -2.82617262068095
214   -3.4176382021776 -2.81484108552866
215  -3.60925582346261 -2.80352014960775
216  -3.80060463333897   -2.792325555456
217  -3.99156784696191 -2.78137090041717
218  -4.18204168113768 -2.77076373485486
219  -4.37193910160513 -2.76060153183747
220  -4.56119182419257 -2.75096763974394
221  -4.74975081357401 -2.74192726651999
222  -4.93758586041465 -2.73352348762585
223  -5.12468500980356 -2.72577323304652
224   -5.3110546461078   -2.718663192159
225  -5.49672097742108 -2.71214556572288
226  -5.68173361883961 -2.70613357124592
227  -5.86617205698473 -2.70049654763453
228  -6.05015607079114    -2.69505437704
229  -6.23386174507835 -2.68957069709876
230  -6.41754560398087  -2.6837439246089
231  -6.60158068455333 -2.67719428106116
232  -6.78651017773928 -2.66944347992414
233  -6.97312712159805 -2.65988087597923
234  -7.16259635522611 -2.64770419328967
235  -7.35667354445577 -2.63180880486201
236  -7.55822188768521 -2.61055347791767
237  -7.77189044006531 -2.58127748555483
238  -8.00247571188794 -2.53979402347451
239  -8.25114675937532  -2.4803663104696
240  -8.51364830860241 -2.39620961607756
241  -8.77848989740686 -2.28168671754394
242  -9.01654333358757 -2.14383212388195
243  -9.10193225826422 -2.08344973194476
244  -9.12760655029783 -2.06394322743704
245  -9.17080605550184 -2.02958706998724
246  -9.89423625786755 -0.0964989136441016
247  -9.98659202066039 0.585650656818606
248  -10.0141658344174  1.12316960487887
249  -9.94087380565269  1.71464976534681
250  -9.66473329889973    2.328831781443
251  -9.16786046627696  2.80314866316148
252  -8.12393656364603  3.08654528495243
253  -7.06760681151103  2.87211865686929
254  -6.13764450081178  2.42809265416334
255  -5.32070162482996   1.9688786713967
256   -4.4977360278543  1.56718791514699
257  -3.63912943686853  1.27750168007765
258  -2.75032452816807  1.11631568580027
259  -1.84821562166099   1.0497083512956
260  -0.946627385685828  1.02463243185971
