// Id               X                Y
  1  -0.104700762949357   4.0635427199774
  2  0.847766502475552  4.02236341690972
  3   1.80759169963096  3.88710866125733
  4   2.77465554686041   3.6556588773835
  5   3.66783489888036  3.37866447259276
  6   4.51626988750309  3.03869729486637
  7    5.3767125915154  2.73170738414075
  8    6.2509076204149  2.46490960839115
  9   7.12981119819627  2.22274892046159
 10   8.00133811825948  1.97161015622884
 11   8.85247395338692  1.65612519243164
 12   9.29208804332507  1.39578602857793
 13   9.67826750364586  1.03301446537058
 14   9.93265634204078 0.458659475942138
 15   9.80032830262151 -0.0800565016893383
 16   9.09994204472812 -0.338829486284498
 17   8.60747403135643 -0.240625306011709
 18   8.51343584011076 -0.207832498451724
 19   8.45464977157436 -0.184983713148438
 20   8.39725187601485 -0.160952369917747
 21   8.33939068587934 -0.134995586227118
 22   8.27479365027255 -0.104006696925151
 23   8.19873862645209 -0.0648152015134694
 24   8.10955643338717 -0.0152129560140848
 25   8.00773446522765 0.0460912573328289
 26    7.8948275429913 0.119634037570299
 27    7.7727121719119 0.205340548214272
 28   7.64320567492435 0.302604329776965
 29   7.50799098704332 0.410279287371575
 30   7.36865406102053 0.526666348482902
 31   7.22648049361975 0.649785502396265
 32   7.08209372386596 0.777885004449985
 33   6.93549860183011 0.909611672518219
 34   6.78637231728433  1.04388309794091
 35   6.63424040598979  1.17979521313906
 36   6.47855564733992  1.31658373101809
 37   6.31874600517543  1.45359572838939
 38   6.15425251076715  1.59026100551047
 39   5.98456424790437  1.72606313287876
 40   5.80925263951399  1.86051290707632
 41   5.62800332362438   1.9931281947272
 42   5.44064128902843  2.12342364962698
 43   5.24714463380872   2.2509114600503
 44   5.04764432521223  2.37511118973602
 45   4.84241047627199   2.4955644994287
 46   4.63182839262659  2.61185001716655
 47   4.41636905127378  2.72359470710919
 48   4.19655865483995  2.83047992739991
 49   3.97295091180238  2.93224210707344
 50   3.74610431455637  3.02866912465777
 51   3.51656537102053  3.11959396106923
 52   3.28485770088616  3.20488719892227
 53   3.05147613908547  3.28444968579057
 54   2.81688438860255   3.3582063516493
 55   2.58151422201671  3.42610185039975
 56    2.3457637547537  3.48809836127123
 57   2.10999215652976  3.54417545145327
 58   1.87450888708057  3.59433129219352
 59   1.63955777938016  3.63858381009522
 60   1.40530002196318  3.67696990511329
 61   1.17180355899296  3.70954126297653
 62  0.939046300891985  3.73635681887836
 63  0.706934932107441  3.75747387618066
 64  0.475333098100155  3.77294075503563
 65  0.244088516384781  3.78279286252109
 66  0.0130508328898562  3.78705210908389
 67  -0.217922071060519  3.78572814982386
 68  -0.448966386110012  3.77881969629402
 69  -0.680217592900763  3.76631486196889
 70  -0.911812309376999  3.74819061780456
 71  -1.14388171047339  3.72441246964772
 72  -1.37653470487401  3.69493597155959
 73  -1.60983409332168  3.65971121913333
 74   -1.8437735913488  3.61869000736771
 75  -2.07826431182428   3.5718337305609
 76  -2.31313471562572   3.5191196024024
 77  -2.54814139994242  3.46054380167338
 78  -2.78298422485522  3.39612181973955
 79  -3.01731983365284  3.32588742010017
 80  -3.25077066436464  3.24989179613995
 81  -3.48292951088634  3.16820405168326
 82  -3.71336137243366  3.08091350872304
 83  -3.94160480697215  2.98813383846106
 84  -4.16717480558553  2.89000865981157
 85  -4.38956876443887  2.78671799073407
 86  -4.60827664347785  2.67848470658985
 87   -4.8227958756001  2.56557994368491
 88  -5.03265095230281  2.44832624517253
 89  -5.23741679537242  2.32709730598859
 90  -5.43674404574625  2.20231358597007
 91  -5.63038341425574  2.07443392441085
 92  -5.81820554577341  1.94394453612208
 93  -6.00021282388343  1.81134807103782
 94  -6.17654045951698  1.67715622201145
 95  -6.34744599212092  1.54188912411379
 96  -6.51328841079351  1.40608335642924
 97   -6.6744995194587  1.27030825238567
 98  -6.83155004723305  1.13518845536834
 99  -6.98491099630868  1.00143015766749
100  -7.13500671220319 0.869849862009094
101  -7.28214512314687 0.741412096925241
102  -7.42636056544902 0.617321643234835
103  -7.56713054942454 0.499177758017949
104  -7.70335549251557 0.388833238292027
105  -7.83368123040768 0.287950774587338
106  -7.95662977752884 0.197780980172706
107  -8.07059080124438 0.119123849851249
108  -8.17391318402611 0.0522901027949527
109  -8.26523863098031 -0.00300135924761237
110  -8.34418516721093 -0.0478094220072397
111  -8.41240446874737 -0.0842300366305721
112  -8.47456936300706 -0.115525873127244
113   -8.5370651745717 -0.145143076275226
114  -8.60187142543696 -0.173874120767218
115  -8.70963893861752 -0.217154765581773
116  -9.20042698775869 -0.344398651796375
117  -9.92133541761518 -0.139598114564026
118   -10.095745345327  0.37905971097874
119  -9.88882417461893 0.966324443555509
120  -9.52668973884328  1.35140922962564
121  -9.09985485493192  1.63084318169677
122  -8.25596134343482  1.96550251980451
123   -7.3837307929462  2.21730428391575
124  -6.49956226303466  2.44880626025216
125  -5.61663885522026  2.70086272778841
126  -4.74491819427238  2.99394334286576
127  -3.88637898163378  3.32599493785768
128  -2.97906633068151  3.62343854093561
129  -2.01578738161498  3.86525600850111
130  -1.05881664851901   3.9867884574594
131  -0.131988822495512  4.65166864746318
132  0.847223693779182  4.61285458459042
133   1.81579642172079  4.47708288766618
134   2.76838097096718  4.25560457527556
135   3.71228272905006  3.96663349659129
136   4.64651403331805   3.6384327336533
137   5.55376939170205  3.32483860214207
138   6.46686076392794  3.04520943977724
139   7.39911373188419    2.779703601847
140   8.39055261744692  2.44658627510533
141   9.32401491221778   1.9386678479719
142   9.81642061048412  1.48529856809176
143   10.1956683427029 0.942580340778982
144   10.4251290406423 0.432381362191471
145   10.5728624750471 -0.0585551788753111
146   10.7138695877846 -0.687847510164651
147    10.700503284049 -1.90827987505782
148   10.4862788790283 -2.30143023499104
149   10.2028379337566 -2.60760094515256
150    9.8761752178052 -2.83244101838867
151   9.52244802682894 -2.98431672468277
152   9.15836396471245 -3.06981679636055
153   8.79876187904557 -3.09791149774346
154   8.45333282067957 -3.07942210261846
155   8.12670207857992 -3.02482195515366
156   7.82007634724224 -2.94297784040947
157   7.53281386721431 -2.84092593039191
158   7.26339568039428 -2.72410277608758
159    7.0098360416242 -2.59660785830426
160   6.76982823677422 -2.46138957157132
161   6.54107590084576 -2.32055788088253
162   6.32176536890362 -2.17586426429371
163   6.11059886525584  -2.0289350502361
164   5.90655558663017  -1.8812424353992
165   5.70876260880921 -1.73407332436541
166   5.51645731825325 -1.58853328978952
167   5.32897247888595 -1.44555786747211
168   5.14572333510868 -1.30592223246656
169   4.96619087328975 -1.17024738383429
170   4.78990028220856 -1.03900381801044
171   4.61639704225628 -0.912515843520254
172   4.44522505813002 -0.790970420246823
173   4.27591121600897 -0.674433169035299
174   4.10795892124183 -0.562871659032381
175   3.94085067122955 -0.456183638709418
176   3.77405771165814 -0.354226600437578
177   3.60705386930545 -0.256845148568182
178   3.43933066105449 -0.163893615174451
179   3.27041134884529 -0.0752526243943229
180   3.09986236096783 0.00916058227884696
181   2.92730121013606 0.0893874538614819
182   2.75240065191949 0.165427984394716
183   2.57488939125569 0.237243784542627
184   2.39455024076337 0.304762966271147
185    2.2112173032557 0.367885508051283
186   2.02477440242261 0.426488020300471
187   1.83515729290117 0.480427336847296
188   1.64236153704346 0.529543155469612
189   1.44645569165756  0.57366089563848
190   1.24759568289856  0.61259656077109
191   1.04603280662592 0.646164980224133
192  0.842108053593953 0.674191063585856
193   0.63623123062474 0.696521538121821
194  0.428851397072055 0.713033839283515
195  0.220429243746193 0.723640217442609
196  0.0114195623880582 0.728287564195579
197  -0.197734084914954 0.726955136175652
198  -0.406595687742822 0.719652504220931
199  -0.614730077910408 0.706419067056839
200  -0.821699741143581 0.687325027890528
201  -1.02707046705301 0.662472390952291
202  -1.23042787895591 0.631993822289698
203  -1.43140175923347   0.5960476807124
204  -1.62969027851782 0.554809240699313
205   -1.8250753624318 0.508460143626809
206  -2.01742494161251 0.457178905135276
207  -2.20668453335291  0.40113428517796
208   -2.3928646070411 0.340481473087568
209  -2.57602972180817 0.275359760255818
210  -2.75629238836717 0.205890214623865
211  -2.93381161572068 0.132172483127233
212   -3.1087944266742 0.0542806546589777
213  -3.28149821985408 -0.0277412379752075
214  -3.45223217949722 -0.113883107352031
215   -3.6213565106366 -0.204170945743078
216  -3.78927885480875 -0.298666035209196
217  -3.95644775123081 -0.397460165159896
218   -4.1233434771539 -0.500666026371425
219  -4.29046707968885 -0.608402365319925
220  -4.45832892337347 -0.720774113783778
221  -4.62743857707755 -0.837848541135597
222  -4.79829820601878 -0.959629379008228
223  -4.97140158949353  -1.0860315534217
224  -5.14724023010085  -1.2168592396137
225  -5.32631672245028 -1.35178913756375
226  -5.50916394758757  -1.4903592418528
227  -5.69636746530927  -1.6319615651541
228  -5.88858847020911 -1.77583616033967
229  -6.08658632859574 -1.92106397687407
230   -6.2912434246884 -2.06655767060616
231   -6.5036063823351 -2.21105507983764
232  -6.72501054284681 -2.35314619918466
233  -6.95732816190217 -2.49131648438257
234  -7.20292809871234 -2.62371540145096
235   -7.4642540271897 -2.74768966661459
236  -7.74357178838377 -2.85947367840565
237  -8.04279725217764 -2.95394935666351
238  -8.36308215205252  -3.0243428353416
239  -8.70391795913838 -3.06194717624977
240  -9.06164551273139 -3.05622370737297
241  -9.42775712530514   -2.995859779388
242  -9.78852901161505 -2.87088306388565
243  -10.1281239181349 -2.67351410374731
244  -10.4317345145739 -2.39406577588066
245  -10.6728064080561 -2.02821297175936
246   -10.786428225426 -0.814466487613677
247  -10.6955728397948 -0.175735693925861
248  -10.5864423524502 0.324748145543943
249  -10.3971645956619 0.844195192805244
250  -10.0541765470628  1.40935813017532
251  -9.58468324602919  1.88735440741481
252  -8.66510174789456  2.42359933856255
253   -7.6717492913483  2.76471945515935
254  -6.72849850091925  3.02388978031958
255  -5.80971553826981  3.28898608284384
256  -4.90059856364214  3.58891322885838
257  -3.97631448443818  3.91012401507685
258  -3.01326977502136  4.21386324990844
259  -2.05289894310571  4.44919309950648
260    -1.094048688112  4.59431129810162
