// Id               X                Y
  1  -0.107186238344189  4.91592093086739
  2  0.914975619934481  4.86699932973152
  3   1.94650012847721  4.70056172452163
  4   2.89135495899436  4.46010342109212
  5   3.76035112910324  4.07935698716239
  6   4.58877060409916  3.66910711663492
  7   5.41067809674454   3.2465518431516
  8   6.24725813284307  2.85372025814142
  9   7.09244810284911  2.48650897996303
 10   7.93356044130099  2.12446917350013
 11   8.75692042355745  1.72747426536527
 12    9.1892323006728    1.441966377781
 13   9.57582765564133  1.06970109652313
 14   9.85206135820306 0.493642026281047
 15   9.71471561462032 -0.128029794437288
 16   9.00796416971557 -0.370485500731001
 17   8.51512809596027 -0.257905424939713
 18   8.37068292488619 -0.197076753193592
 19   8.30550259671094 -0.165322166655423
 20   8.24294431208518 -0.132286080743483
 21   8.18209211249332 -0.097696928445459
 22   8.11982161384435 -0.0598210425698823
 23   8.05176918862123 -0.0155044354177837
 24   7.97499569069656 0.0381462987622936
 25   7.88847052539943 0.103263841164584
 26   7.79255813034575 0.181154589008365
 27   7.68839816863313 0.272400656264694
 28   7.57739965590198 0.376964803641216
 29   7.46093164303904 0.494268058931998
 30   7.34023408355058 0.623172184863144
 31   7.21646268956207 0.761906017526598
 32   7.09053361751779 0.908313204931191
 33   6.96279724718098  1.06043671893653
 34    6.8330581688741   1.2167447459337
 35   6.70080672651497  1.37602601814069
 36   6.56537814869059  1.53729132257782
 37    6.4260332611647  1.69972314742117
 38   6.28200463138438  1.86263992679267
 39   6.13253004594305  2.02546009216307
 40   5.97688376216621  2.18766307347739
 41    5.8144101780036  2.34875003990258
 42   5.64455960415418  2.50821039232623
 43   5.46692184630867  2.66550042342816
 44    5.2812516993122  2.82003778273934
 45   5.08748160663395  2.97121087554642
 46   4.88571966258557  3.11839843541826
 47   4.67623435243562  3.26099280064252
 48   4.45942981812527  3.39842102337622
 49   4.23581652553001  3.53016000151681
 50   4.00598205543499  3.65574427088223
 51   3.77056572221809  3.77476712713682
 52   3.53023929319493  3.88687700645035
 53   3.28569457936788  3.99177155657946
 54   3.03763725129553  4.08919177994529
 55   2.78678490675881   4.1789182433614
 56   2.53386614081948   4.2607707470083
 57   2.27961620445911  4.33461203231725
 58    2.0247640952514  4.40035502165531
 59   1.77000627102933  4.45797170353321
 60   1.51596459942842  4.50750028687841
 61   1.26313153039438  4.54904617557288
 62   1.01181347969692  4.58277254698252
 63   0.76209082084909  4.60887874122952
 64  0.513813044949544  4.62756921798471
 65  0.266635074275699  4.63902039647797
 66  0.020080926649258   4.6433537269518
 67  -0.226388540975652  4.64061962130392
 68  -0.473316232088986  4.63079211372655
 69  -0.721192411340441  4.61377291731103
 70  -0.970392659056231  4.58940532626299
 71  -1.22111601474072  4.55749853124114
 72  -1.47334337084453  4.51785921112522
 73  -1.72683281342158  4.47032308852519
 74  -1.98115127650288  4.41477882099346
 75  -2.23572716999501  4.35118028187762
 76  -2.48990557978975  4.27954787285968
 77  -2.74299326587742   4.1999624643634
 78  -2.99428847771504  4.11255633058232
 79  -3.24309653677674  4.01750471036949
 80  -3.48873522229429  3.91502027889978
 81  -3.73053483674174   3.8053514764314
 82  -3.96783738239094  3.68878457408506
 83  -4.19999830246683  3.56564858086286
 84  -4.42639314242436  3.43632152889507
 85  -4.64643040031623  3.30123624897046
 86  -4.85957073073718  3.16088348666311
 87   -5.0653514777625  3.01581024029856
 88  -5.26341424282407  2.86661172839421
 89  -5.45353199288775  2.71391659169882
 90  -5.63563138816869  2.55836679879969
 91  -5.80980594074485  2.40059591899159
 92  -5.97631660808806  2.24121123531131
 93  -6.13557850603808  2.08078565398715
 94  -6.28813517613834  1.91986379204098
 95   -6.4346243208985  1.75898310594936
 96  -6.57573984608265  1.59870685831551
 97  -6.71219340682575  1.43966336031819
 98  -6.84467425555819  1.28258715671428
 99  -6.97379891094874  1.12836378782706
100  -7.10003058448823 0.978091249605952
101  -7.22354204191634  0.83317308693023
102  -7.34406046939974 0.695372797933015
103  -7.46087972960619 0.566610598762346
104  -7.57307638014145 0.448537397808104
105  -7.67963720340629 0.342303676837665
106  -7.77945630080885 0.248565730312097
107  -7.87140652179864 0.167490752761887
108  -7.95459049439287 0.0986783165051247
109  -8.02877890933856 0.0410220471365879
110  -8.09497557285347 -0.00743321420534176
111  -8.15586306259678 -0.0495043066428198
112  -8.21539935060663 -0.0883273353762605
113  -8.27629248232109 -0.125672700264314
114  -8.33946701083186 -0.161899739457314
115   -8.4856241779094 -0.236113497697458
116  -8.97337647836581 -0.391042730359189
117  -9.70556856808527 -0.228909506363381
118  -9.93138514616831 0.205779336987671
119  -9.86126519054338 0.719513252317217
120  -9.53091865724877  1.20452802625938
121  -9.06348072564494  1.58660858857489
122   -8.2201870879273  2.03266604608545
123  -7.35923982398896  2.41381628767417
124  -6.49213719658233   2.7736606087584
125  -5.63493484859942  3.15078492697454
126  -4.79749120877063  3.56042851766129
127  -3.96821710617578  3.98878433376804
128  -3.11758677071435   4.3860477032862
129  -2.17409503501269  4.64478116732846
130  -1.14118172852958  4.80743579229705
131  -0.0957792473928345  5.49893003676467
132  0.892902086612357  5.45729987879514
133   1.86971853018575  5.30484095085628
134   2.84943442358024  5.04512859024198
135   3.82451359384098  4.67792408213998
136   4.76300188751264  4.24868870149246
137   5.65442509164084  3.81357370918587
138   6.52894026277577  3.40506285754203
139   7.42152246835937  3.01064327886269
140    8.3652671844849  2.56326005840749
141    9.2555114179693  1.98132888843228
142   9.72590292493177   1.5052405220914
143   10.0945068980454 0.949981434777415
144   10.3422038940454 0.372214651114568
145   10.4837970100322 -0.122997304242363
146   10.6150123397176 -0.768312182872938
147    10.589209474317 -1.71096014949226
148   10.4072987926952 -2.12653530961268
149   10.1500640667573 -2.45997968774122
150   9.84582714981879 -2.71176107235749
151   9.51065857492089 -2.89036385527836
152   9.15769937675075  -3.0019415424111
153   8.79992920335498 -3.05257485766369
154   8.44837576020066 -3.05007864442601
155   8.11057811797764 -3.00340544200939
156   7.79060102063567 -2.92135441931901
157   7.48991781057702 -2.81172747446573
158     7.208391474413 -2.68106900796635
159   6.94498231677449 -2.53472828114468
160   6.69809321410811 -2.37696390950516
161   6.46568215841313 -2.21097726534681
162   6.24555217087218 -2.03911447266425
163   6.03581894289138 -1.86332970783206
164    5.8349984807172 -1.68542888638451
165    5.6418505761568 -1.50705267120967
166   5.45528369186449 -1.32964236347772
167   5.27432844484588 -1.15443931507815
168   5.09813327610479 -0.982498271875049
169   4.92596095046753 -0.814701153404329
170   4.75717781376949 -0.651765325667152
171   4.59123385663852 -0.49424574355647
172   4.42763588624222 -0.342534721276134
173   4.26591886195326 -0.196865250756018
174    4.1056209746076 -0.0573227667137833
175   3.94626648921652 0.0761330258305774
176   3.78735784585593 0.203638142888119
177   3.62837621148367 0.325390158999465
178   3.46878822692472 0.441614334797218
179   3.30805616201462 0.552533634635764
180   3.14564883896512 0.658344833680228
181   2.98105121106671 0.759201504164931
182   2.81377117938167 0.855203527730986
183   2.64334302090869 0.946391963482817
184   2.46932772653934  1.03274756909506
185   2.29131167828398  1.11419099510792
186   2.10890643136562  1.19058269800171
187   1.92175371042921  1.26172108262539
188    1.7295405705009   1.3273384640515
189   1.53202914534287  1.38709621475089
190   1.32910245082908  1.44058270538606
191   1.12082166305121  1.48731956907883
192  0.907482019655129  1.52678200976847
193  0.689647792305331  1.55843582297357
194  0.468148274561331  1.58178736744953
195  0.244030923487571  1.59643594601754
196  0.0184879148838936  1.60211627411804
197  -0.207219329647905  1.59872401451267
198  -0.431825580851514  1.58632439337609
199  -0.654123954905398  1.56514582998063
200  -0.873034940829113  1.53555802032961
201  -1.08767716412617  1.49803384345127
202  -1.29741903150946  1.45309992543898
203  -1.50189244395782  1.40128667904457
204  -1.70096700881444  1.34308882567772
205  -1.89469917808315   1.2789418365589
206  -2.08327545856114  1.20921313281862
207  -2.26696414693074  1.13420297269819
208    -2.446082187516   1.0541493470535
209    -2.620977204016 0.969232696434301
210  -2.79202106819743 0.879578414214654
211  -2.95961024166568 0.785256976865209
212  -3.12416860775608 0.686282784936575
213  -3.28614969186898  0.58261341903039
214  -3.44603645083616 0.474151177392168
215  -3.60433791116408 0.360748632078676
216    -3.761582792574  0.24221961607651
217  -3.91831092645034 0.118356545309288
218  -4.07506385485716 -0.0110457631883021
219  -4.23237651240125 -0.146160640626386
220   -4.3907722867054 -0.287096604414085
221  -4.55076384558248 -0.433864248947525
222  -4.71286166405216 -0.586347097630309
223  -4.87759098438565 -0.744280149293716
224  -5.04551603960465 -0.907237935235936
225  -5.21726827289189  -1.0746307504375
226  -5.39357401986024 -1.24570470344233
227  -5.57527783690134 -1.41954026126073
228   -5.7633610761543 -1.59504624264212
229  -5.95896226436263 -1.77095169681856
230  -6.16341834729887 -1.94580544957012
231  -6.37835321803531 -2.11798763764847
232  -6.60576912359769 -2.28566601428965
233  -6.84793546717041 -2.44654241563193
234  -7.10703306610077 -2.59746100981963
235  -7.38486748179089  -2.7341793109834
236  -7.68267568096088 -2.85128184866218
237  -8.00076399885606 -2.94208598238842
238  -8.33783713681792  -2.9986072023707
239  -8.69007549295228  -3.0118199567571
240  -9.05030635900474 -2.97245081220057
241  -9.40798042086945  -2.8721716033141
242  -9.75055163137792 -2.70414286379861
243  -10.0650287764617 -2.46134537431569
244  -10.3351214434897 -2.13455102626028
245  -10.5327938257295 -1.71972971844679
246  -10.5815843840741 -0.746636859836051
247  -10.4660085812774 -0.0859709198350064
248  -10.2948976746603 0.580085754693626
249  -10.0133984510848  1.20628200181168
250  -9.62997196525707  1.72840963453162
251  -9.22875024485644  2.10560757910835
252  -8.43143717969294  2.60787937837062
253   -7.5732546972972  2.99572124659249
254  -6.70037448720062  3.35652569577729
255  -5.83000250283202  3.73777283638053
256  -4.95380546637255  4.15215819326676
257  -4.01652962462625  4.58641921707304
258   -3.0428726921148  4.96771011748707
259   -2.0679104947591  5.24404812692496
260   -1.1093935785403  5.41818104230966
