// Id               X                Y
  1  -0.102488114299692  3.27742639419117
  2  0.820559830569581  3.24041825997546
  3   1.74387086279886  3.12139808460252
  4   2.66277261213181  2.92411271022572
  5   3.53678062591616  2.68136913815559
  6   4.41880321249985  2.46561491037453
  7   5.30932009363427  2.28397542692353
  8   6.20354206515316  2.12926175025812
  9   7.09445786929985  1.97616714460245
 10   7.97459798947082  1.79367309553835
 11   8.84053968742488   1.5434805219793
 12   9.29268179431868  1.31817762295893
 13   9.70187973207741 0.984138727853719
 14   9.98539247493233 0.427272211132429
 15   9.86930239770791 -0.104097685268517
 16   9.14512890287152 -0.357259930202893
 17   8.61013577859462 -0.262525157167005
 18   8.49124072430877 -0.227381305466809
 19   8.43331715959719 -0.208452708716909
 20   8.37785191229425 -0.189221420212522
 21   8.32343233322106 -0.169340938420292
 22   8.26450804984811 -0.146681583235218
 23   8.19588741859717 -0.118861239224841
 24   8.11489751018916 -0.0840904002728909
 25   8.02089562653018 -0.0412194775093515
 26   7.91440477239799 0.0104235375894624
 27    7.7964719482239 0.0711361904353033
 28   7.66829798757219 0.140897562077146
 29   7.53108124159663 0.219379839081186
 30   7.38602291656033 0.305917748592243
 31   7.23440306370294 0.399468960585799
 32   7.07752025841876   0.4986932838408
 33   6.91634584149377 0.602257156209711
 34   6.75131274075591 0.709074759532266
 35   6.58250080410107 0.818266675429571
 36   6.40984302929316 0.929069074878967
 37   6.23322649595804  1.04079252898427
 38   6.05254514617476  1.15280328003614
 39   5.86773202831212  1.26451279472134
 40   5.67877817234235  1.37537244891031
 41   5.48574092681624  1.48487193905886
 42   5.28874385643625  1.59254003300831
 43   5.08797033004238  1.69794624584087
 44   4.88365300285254  1.80070224012729
 45   4.67606127970422  1.90046215930977
 46   4.46548851713601  1.99692156649679
 47   4.25224026150198   2.0898150509612
 48   4.03662433140236   2.1789128151731
 49   3.81894311570939  2.26401666270013
 50   3.59948811236609    2.344955807098
 51   3.37853647807936  2.42158286130905
 52   3.15634916995056  2.49377028580654
 53   2.93317010662178  2.56140749355476
 54   2.70922564826906  2.62439873145316
 55   2.48472362801761  2.68266176436735
 56   2.25985125840284  2.73612725741437
 57   2.03477161127201  2.78473858279063
 58   1.80961908036641  2.82845161513545
 59   1.58449510977829  2.86723402469411
 60   1.35946604566765  2.90106373472659
 61   1.13456470492082  2.92992658235597
 62  0.909796018779425   2.9538136427555
 63  0.685145483251749  2.97271888653486
 64  0.460588093442222  2.98663769707386
 65  0.236095524578175  2.99556638115572
 66  0.0116403189989644  2.99950241384315
 67  -0.212802935139658  2.99844496057408
 68  -0.437258513355566   2.9923952513154
 69  -0.661751112283584  2.98135657423809
 70  -0.886306434973864  2.96533392506915
 71  -1.11094936333793  2.94433361537167
 72  -1.33569896401785  2.91836330984085
 73  -1.56056078557109  2.88743291556867
 74  -1.78551823558226  2.85155644180331
 75  -2.01052551962828  2.81075451071044
 76  -2.23550412501833  2.76505688900111
 77  -2.46034335490353  2.71450443480176
 78  -2.68490386256289  2.65915018878822
 79  -2.90902235773797  2.59905975503235
 80  -3.13251585540672  2.53431138492483
 81  -3.35518460549864  2.46499622004801
 82  -3.57681364062432  2.39121903462223
 83  -3.79717339650437  2.31309965569056
 84   -4.0160200597252  2.23077510338873
 85  -4.23309628696211  2.14440240382326
 86  -4.44813283838171  2.05416196858278
 87  -4.66085154515048  1.96026138533158
 88  -4.87096990226615  1.86293940975362
 89  -5.07820742498577   1.7624698920278
 90  -5.28229370094232  1.65916532810591
 91  -5.48297778847654  1.55337972649222
 92  -5.68003825179634  1.44551055895389
 93  -5.87329270836144  1.33599974502041
 94  -6.06260534123016  1.22533390752557
 95  -6.24789045530911  1.11404449441734
 96  -6.42910985558543  1.00270872180856
 97  -6.60626150726234 0.891952598020889
 98  -6.77935619501258 0.782457636900349
 99  -6.94837602373173 0.674974155886299
100  -7.11319352692289 0.570352334021105
101  -7.27337906325639 0.469630733287881
102  -7.42794042752047 0.374138339910546
103  -7.57553804789118   0.2852633271197
104  -7.71495578185977 0.204076037933289
105  -7.84512676241172 0.131271869305362
106  -7.96501186553723 0.0672346661433033
107  -8.07357136303438 0.0120714569074613
108  -8.16989584396554 -0.0344038977638323
109  -8.25354823233173 -0.0727421715233713
110  -8.32517940127981 -0.103997382139948
111  -8.38739247110127 -0.129920614806932
112  -8.44529828418187 -0.152999511270899
113  -8.50454780747524 -0.175542019964734
114  -8.56665652430771 -0.19798080761604
115  -8.69787708453568 -0.241306343460995
116   -9.2321656727776 -0.358321817007594
117  -9.97093829634101 -0.144467355922616
118   -10.116402084863 0.376458496533729
119   -9.8657890460243 0.943179491784514
120  -9.47335947893819  1.29451378474644
121  -9.03086100060289  1.53507057821737
122  -8.17166454529414  1.80369919929407
123  -7.29427231187753  1.99303123424474
124  -6.40426593467124  2.14478671643746
125  -5.50965307436887  2.29271204669071
126   -4.6175263260336  2.46472651278467
127  -3.73291565335143  2.67050682910191
128  -2.85648165966507  2.90524175618045
129   -1.9482159290923  3.10421236957136
130   -1.0248821424698  3.20670264027368
131  -0.103954957509264  3.86294344374593
132  0.838897834350115  3.82706512420404
133   1.77559074519073  3.70603808331477
134   2.70388380489893  3.51620965697814
135   3.62381592268265  3.29193061426619
136   4.53735335766213  3.07427016045173
137   5.45504833739452  2.88637064298467
138   6.38205727383906  2.72323197910968
139   7.32317445709594  2.55225850232508
140   8.33285050646148  2.29038715650934
141   9.29026875001088  1.83570939737689
142   9.80888048179277   1.4131567438861
143   10.2205758784509 0.903067732607732
144   10.4798698022395 0.423993343795448
145   10.6566577601519 -0.0513362145814143
146   10.8177497554007  -0.7051977927873
147   10.7840658183306 -1.76649454935313
148   10.5905571542972 -2.17352426223794
149   10.3222101384346 -2.50629585298954
150   10.0056636726027 -2.76221775124706
151   9.65682795271086 -2.94802117680156
152   9.29155953418161 -3.06887081357993
153    8.9250922269927 -3.13191646307146
154    8.5687152186543 -3.14677145263974
155   8.22894148855206 -3.12363798257404
156   7.90852744563417 -3.07174515621876
157   7.60786851515659 -2.99872509002289
158    7.3260787543494 -2.91060013403976
159   7.06162931163125 -2.81199674020875
160   6.81262910579625 -2.70636488515629
161   6.57691204142346 -2.59614198936471
162   6.35219667763271 -2.48295307374473
163   6.13649911027721 -2.36796847679437
164   5.92838357574597 -2.25220846516805
165   5.72679780764767 -2.13658823045234
166   5.53088477747365 -2.02188800946388
167     5.339898665972 -1.90874886155917
168    5.1531654213832 -1.79768119629333
169   4.97005947783315 -1.68907714506567
170    4.7899894455444 -1.58322538350125
171   4.61239025334825 -1.48032791698027
172   4.43672022302114 -1.38051802963735
173   4.26246174740701 -1.28387830566649
174   4.08912429791086 -1.19045758349345
175   3.91624860001233 -1.10028588729335
176   3.74341101357266 -1.01338670171456
177    3.5702273995314 -0.929786310016744
178   3.39635600044809 -0.849520228151342
179   3.22149908082786 -0.772637001775573
180   3.04540325753578 -0.699199784865296
181    2.8678586109655 -0.62928619957788
182   2.68869682237422 -0.562987003729004
183   2.50778874636442 -0.50040407585506
184   2.32504199167164 -0.441648168112998
185   2.14039919482159 -0.386836762463455
186   1.95383762011094 -0.336092183160193
187   1.76537037165755 -0.289539880061399
188   1.57504880514774 -0.247306567844043
189   1.38296485672514 -0.209517808307498
190   1.18925143574755 -0.176294775334492
191  0.994079299942569 -0.147750340736533
192  0.797650076214795 -0.123985063491659
193   0.60018671777222 -0.105083858598405
194  0.401923731237031 -0.0911139132583357
195  0.203099400640975 -0.0821239392455066
196  0.00395121611139798 -0.0781443948499965
197  -0.195285529400072 -0.0791880943699722
198  -0.394376957801225 -0.0852506787742282
199  -0.59308914645935 -0.0963106616317928
200  -0.791187681675528 -0.112329090413823
201  -0.988439733023712 -0.133249186889364
202  -1.18461946171765 -0.158996539589106
203  -1.37951635025995 -0.18948038341809
204  -1.57294468984448 -0.224596159462259
205  -1.76475174710396 -0.264229035374862
206  -1.95482261501068 -0.308257681153564
207  -2.14308122573251 -0.356557583803058
208  -2.32948856477975 -0.409003531827123
209  -2.51403991158987 -0.465471351655696
210  -2.69676273624505 -0.525839265201754
211  -2.87771611277669 -0.589989263761726
212  -3.05699171269415 -0.657808730112506
213  -3.23471593673775 -0.72919231565545
214  -3.41105256783283 -0.804043884378273
215  -3.58620537360982 -0.882278202392433
216  -3.76042022565637 -0.963821974557513
217  -3.93398645446066 -1.04861379170804
218  -4.10723729508358  -1.1366025434763
219  -4.28054940287527 -1.22774387410825
220  -4.45434154740123 -1.32199432176762
221  -4.62907274215938 -1.41930289794003
222  -4.80524024668077 -1.51960004042771
223  -4.98337808565295 -1.62278410608053
224  -5.16405695721963 -1.72870583174558
225  -5.34788663931515 -1.83715143239933
226  -5.53552226395756 -1.94782515489849
227  -5.72767622293598 -2.06033211033545
228  -5.92513839530877 -2.17416212416882
229  -6.12881055970136 -2.28867580880734
230  -6.33977659056716 -2.40309966203065
231  -6.55948327587884 -2.51655550458774
232  -6.78998973431948 -2.62806506452629
233  -7.03372397858386 -2.73623801948865
234  -7.29295038677608 -2.83884286070678
235  -7.56965198134423 -2.93262283931456
236  -7.86550001387996 -3.01314881003707
237  -8.18161386562204 -3.07459591524501
238  -8.51797392187479 -3.10950366021454
239  -8.87239479752965  -3.1087199262723
240  -9.23913841477323 -3.06189836065564
241  -9.60778182835697 -2.95891836518752
242  -9.96378727604371 -2.79177300744626
243    -10.29175298758 -2.55437540254818
244  -10.5764630679407 -2.23895718485231
245  -10.7897802891816 -1.85047187480435
246  -10.8855032416092 -0.795276756876984
247  -10.7614571899975 -0.133220093279496
248  -10.6110593041676 0.350674177548197
249  -10.3782946756718 0.839855142412656
250  -9.99132544340733  1.36799496323981
251  -9.48864049381267  1.81069073071523
252  -8.54227745104257   2.2908335749923
253  -7.53203936359182  2.56531313719238
254   -6.5873789393712  2.73730585008439
255  -5.65804923916842  2.89443603001781
256  -4.73815721731367  3.07296940109043
257   -3.8230626854462  3.28110439656616
258  -2.90271826367201  3.49898290559351
259  -1.97383457270323  3.68748807760984
260  -1.04007555452994  3.81261705502605
