// Id               X                Y
  1  -0.105621026047586  4.33606232616301
  2  0.876176353068973  4.28907141384878
  3   1.82280934489308  4.16408060871442
  4   2.72922239236852  3.94725259448921
  5   3.60309620571921  3.61115004836884
  6   4.46562416821802  3.24307258250223
  7   5.32401540399286  2.88670883581927
  8   6.19407098988533  2.56573855413006
  9   7.06844545272924  2.27261144327787
 10   7.93531090598155  1.98073073261737
 11   8.78292328307866  1.64332248325522
 12    9.2290536361092  1.38425022830677
 13   9.63178893929155   1.0312895666259
 14   9.92568389731427 0.465143750287279
 15   9.79252540602003 -0.15973046081475
 16   9.07145658726134 -0.384651069088136
 17   8.61458000679901 -0.286425155559041
 18   8.52901689325164 -0.255827466549479
 19   8.46812486837941 -0.231609706921728
 20   8.40877469100688 -0.206065123093943
 21   8.34901492827824 -0.178381220103103
 22    8.2829867669583 -0.145533595181171
 23     8.206259906069 -0.104367971594417
 24   8.11723511006219 -0.0526127517865301
 25   8.01638837321231 0.0111110637445223
 26   7.90526409435287 0.0874140933178704
 27   7.78573616801557 0.176280895253487
 28   7.65955356850408 0.277206531907709
 29   7.52813942062223 0.389303033105608
 30   7.39265050730957 0.511282106761214
 31   7.25420887903633  0.64131324795291
 32   7.11372505005397 0.777304290170681
 33   6.97145766308263  0.91752970079641
 34   6.82713642826285  1.06070854559931
 35   6.68025189702687  1.20582618848632
 36   6.53019474782752  1.35204438704007
 37   6.37631577806463  1.49866227464918
 38   6.21796305889289  1.64508544372082
 39   6.05451380668332  1.79079379130557
 40   5.88540709382592  1.93530864963502
 41   5.71017787267859  2.07816346618352
 42   5.52848853420733  2.21888346001935
 43   5.34015235804615  2.35697792855313
 44    5.1451442624278  2.49194515291098
 45   4.94359720127899  2.62328628863367
 46   4.73578574220706   2.7505228778367
 47   4.52210061137054  2.87321295816069
 48   4.30301888906786  2.99096244150726
 49    4.0790742388364  3.10343049921632
 50   3.85083049841613  3.21032938152455
 51    3.6188606383735  3.31142010185723
 52   3.38373185775678  3.40650576468855
 53    3.1459965932189  3.49542422175744
 54   2.90618845553765  3.57804143727696
 55   2.66482146956686  3.65424658577558
 56   2.42239037632881  3.72394954934877
 57   2.17936915749977  3.78708108569787
 58   1.93620456993919  3.84359541426468
 59   1.69330183528771  3.89347424338682
 60   1.45100148403573  3.93673039339994
 61   1.20955032445902  3.97340848034738
 62  0.969074968921708  4.00358025327525
 63  0.729570035009187  4.02733378280397
 64  0.490909883254551  4.04475857409975
 65  0.252881192756574  4.05593101314841
 66  0.0152219027046328  4.06090413070414
 67  -0.222348654610682  4.05970266787324
 68  -0.460112519336333   4.0523217647079
 69  -0.698340510514334   4.0387275721216
 70  -0.937272328437158  4.01886008830031
 71   -1.1770847238441  3.99264004812577
 72  -1.41785584483459  3.95998074699419
 73  -1.65954116573965  3.92080273375077
 74  -1.90197133643396  3.87504714107246
 75  -2.14487010738898  3.82268407878179
 76  -2.38788202953473  3.76371514050009
 77  -2.63059925888641  3.69817146882125
 78  -2.87258127543689  3.62610981785767
 79  -3.11336614927965  3.54760883466109
 80   -3.3524750283536  3.46276702366253
 81  -3.58941271784965  3.37170307106524
 82  -3.82366726028063  3.27455860047712
 83  -4.05471096317453  3.17150301217916
 84  -4.28200474354355  3.06273974646442
 85  -4.50500709779851  2.94851302844199
 86  -4.72318843309918  2.82911387285314
 87  -4.93605081195936  2.70488390801034
 88  -5.14315228110126   2.5762155563268
 89  -5.34413388327935  2.44354747401264
 90  -5.53874634112628  2.30735505982191
 91  -5.72687256940655  2.16813728329328
 92  -5.90854202075166  2.02640275576952
 93  -6.08393373120614  1.88265925313493
 94  -6.25336684109315  1.73741104253422
 95  -6.41727986149607  1.59116690199824
 96  -6.57620204527048  1.44445897708955
 97  -6.73072072156506  1.29786983156418
 98  -6.88144666117533  1.15206375164341
 99  -7.02897545678014  1.00781957600162
100   -7.1738347100012 0.866068166685187
101  -7.31637888548455  0.72796184375287
102  -7.45654540917832 0.595038041445073
103  -7.59358890888866 0.469320916234359
104  -7.72630594987088 0.352885633525237
105  -7.85348244822222 0.247277824314859
106  -7.97385104708455 0.153489647724958
107  -8.08591568235231 0.0720965610761409
108  -8.18803656703338 0.00323001318155605
109  -8.27882600657202 -0.0535662290707157
110  -8.35786291373549 -0.0995278301812426
111    -8.426676598021 -0.136866876093734
112   -8.4895071156107 -0.168767784459108
113  -8.55190195203216 -0.198370500679282
114  -8.61563835379275 -0.226465769377942
115  -8.70640875667707 -0.262742109343016
116  -9.16117591885632 -0.380827887388273
117  -9.89381725647036 -0.191128680485757
118   -10.063898706552 0.364637660411645
119  -9.82923574743412 0.951550813025425
120  -9.45397853175644  1.33169904636968
121  -9.02295022696915  1.61186421029788
122  -8.18498405786203  1.96923073141932
123  -7.32175878443069  2.26403034649058
124  -6.44727730615864  2.54830696005801
125  -5.57461696903748  2.85480920439559
126  -4.71244853319497  3.19750292264063
127  -3.86103615128752   3.5722221118199
128  -3.00175783039823  3.89687432374483
129  -2.08120770012379    4.115851433549
130  -1.07990914355886  4.25028165410987
131   -0.1330322928334    4.923067382758
132  0.843007698885215  4.89048585488431
133   1.81007626460708  4.75962029017435
134    2.7640516482557  4.53032030068917
135   3.74120518151574  4.19322772682074
136    4.6624880326476  3.82212033154079
137   5.55582137433582  3.45968528211896
138   6.45493683293789  3.12705681173222
139   7.37493098596462  2.81016029648614
140   8.35125498180261  2.43458424315178
141   9.27430186929494  1.90383609090617
142   9.76389314839801  1.44582780749665
143   10.1482320119709 0.900841984440477
144   10.4104761086792 0.329902063406603
145   10.5673602197755 -0.156852058510652
146   10.7341802393669 -0.812711931658972
147   10.7513584572398 -1.87261078386418
148   10.5545628342298   -2.288098138013
149   10.2832825849734 -2.60789195845615
150   9.96398334656526 -2.84429908987922
151   9.61425099188551 -3.00592117398308
152   9.25140163857028 -3.09938055270052
153   8.89092589929601 -3.13348136591263
154   8.54311915867067 -3.11894446546444
155   8.21300829276766 -3.06620106216237
156   7.90204694828381 -2.98408024290999
157   7.60979070956894 -2.87959569765973
158   7.33498747695693 -2.75824656590197
159    7.0761149655322 -2.62439256781802
160   6.83148101594203 -2.48146786348454
161   6.59907627091475 -2.33198615164009
162   6.37683900618027 -2.17776508500928
163   6.16319805053851  -2.0204341813593
164   5.95702151017041 -1.86156810755067
165   5.75737962835601 -1.70259981954613
166   5.56345411412638 -1.54478390009696
167   5.37451936251242 -1.38919898608553
168   5.18993721055664 -1.23675803628245
169   5.00914864037084 -1.08821639458103
170   4.83165801211354 -0.944175339480536
171   4.65701072500698 -0.805083115860908
172   4.48476862282594 -0.671238039384982
173   4.31448855313619 -0.542798160211844
174    4.1457082213376 -0.419799514662741
175   3.97794101324713 -0.30218190352481
176   3.81067914694612  -0.1898189977691
177    3.6434030627672 -0.0825489185265561
178   3.47559441912044 0.0197980480279475
179   3.30675016937385 0.117376849184336
180    3.1363956471942 0.210311246385587
181   2.96409516175539 0.298683651085874
182   2.78945919017661  0.38253056335523
183   2.61214783922615   0.4618424864455
184   2.43187087603768  0.53656691664166
185   2.24838535293911 0.606612902038764
186   2.06149268401493 0.671855736465207
187   1.87103786310352 0.732140660558487
188    1.6769140319138 0.787285058158039
189   1.47907522999002 0.837079599356223
190   1.27755811022935 0.881289968912534
191   1.07250918233761 0.919661790792463
192  0.864208622942026 0.951931302050344
193  0.653078358099247 0.977842439106327
194  0.439666065500676 0.997167579128505
195  0.224608834288271  1.00972651892988
196  0.0085918820532013  1.01539909102397
197  -0.207682245743786    1.014130741608
198  -0.423510370446664  1.00593368439943
199  -0.638200392204775 0.990886041693063
200  -0.851090906040338 0.969128566374743
201  -1.06158409418041 0.940856331855232
202  -1.26918401070753 0.906303783757986
203  -1.47352436090884 0.865725251577532
204  -1.67437446065726 0.819375929313963
205  -1.87162438624678 0.767497778606193
206  -2.06525939568574 0.710311740307282
207  -2.25533463769548 0.648014780372942
208  -2.44195686608432 0.580779143519651
209  -2.62527490020925 0.508751545132412
210  -2.80547728235619 0.432051072041135
211  -2.98279423836783 0.350765633069048
212  -3.15750102782875 0.264947601432145
213  -3.32992038894579 0.174609771432391
214  -3.50042257831053 0.0797229675271051
215  -3.66942225173804 -0.0197833340744972
216  -3.83737206755322 -0.124016140160044
217  -4.00475344074533 -0.233108878072849
218  -4.17206538217242 -0.347205637470457
219  -4.33981284832998 -0.466439884477612
220  -4.50849647595401 -0.590908691013655
221  -4.67860587410328 -0.720644501949993
222  -4.85061860694299 -0.855587294640681
223   -5.0250064046958 -0.995560270305422
224  -5.20224886064868 -1.14025154353525
225  -5.38285306862343 -1.28920254368344
226  -5.56737594346958 -1.44180152693863
227  -5.75644530933743 -1.59727888568873
228  -5.95077704829351 -1.75470100608538
229  -6.15118908603318 -1.91296169554752
230   -6.3586211679049 -2.07077559143158
231  -6.57419903454105 -2.22669511856821
232  -6.79943337888625 -2.37918786818214
233  -7.03643129370164  -2.5266294998585
234  -7.28758518142902 -2.66688046112676
235   -7.5550223199601 -2.79680172438291
236  -7.84054870207942 -2.91215153156988
237  -8.14567242736914 -3.00747888733649
238  -8.47120765186404 -3.07580244294346
239  -8.81628131785782 -3.10826676831316
240  -9.17670459484257 -3.09421899175126
241  -9.54321242108833 -3.02232132187738
242  -9.90129507829907  -2.8826485028758
243   -10.234353676407 -2.66715160167398
244  -10.5254220629692 -2.36568616038626
245  -10.7480919547952 -1.96517042993772
246  -10.7972774677394 -0.900806720827402
247   -10.672065535212 -0.235557126058945
248  -10.5471040793261 0.258746405399468
249  -10.3373916353324 0.800632107592474
250   -9.9873409896297  1.36693859609163
251  -9.52002897816883  1.84952895143381
252  -8.61339305342442   2.4102973737949
253   -7.6367252919361  2.79654013456809
254  -6.70721330604941  3.10988301373721
255  -5.80296103985769   3.4300392059444
256  -4.90786343087478  3.78060093979549
257  -3.97758110653119  4.14978304112958
258  -2.99974930945824  4.48200874929833
259   -2.0513058756215   4.7138862331192
260  -1.09732791293383  4.86008310922457
