// Id               X                Y
  1  -0.109471799850834  5.12346567226661
  2  0.939500240459014  5.06634221954288
  3   1.99884124232929  4.88072628427283
  4   3.03365594937602  4.58447067824443
  5    3.9968738033263  4.18999904597537
  6   4.80407183889246  3.71339851390833
  7   5.61335649984466  3.24401890214701
  8   6.44968467273303  2.81732024394194
  9   7.30358608851423  2.41865685793834
 10   8.15986995218134   2.0171566816543
 11   9.01035307413574  1.57728882002481
 12   9.50424205778288  1.21385915959602
 13   9.88315888386109 0.750699290872154
 14   10.0191168010868 0.244419857011399
 15   9.86292298489912 -0.228192339616078
 16    9.1759947882398 -0.517770005896033
 17   8.40857516321888 -0.28157956973819
 18   8.32353028129566 -0.233855087452418
 19    8.2660475438491 -0.198751236766363
 20   8.20947803634511 -0.161947589429875
 21   8.15225673656259 -0.122370111986527
 22   8.08857773149504 -0.0755555772889567
 23   8.01453240885346 -0.0173761264230512
 24    7.9295024272615 0.0544224870662084
 25   7.83492714914741  0.14054755328014
 26    7.7330029012143 0.240651102929485
 27   7.62589003210299 0.353712976502902
 28   7.51532763928845 0.478314541797717
 29   7.40250653549096 0.612842874993482
 30   7.28808449494616 0.755640532886352
 31   7.17226942822653 0.905108194302698
 32   7.05492520797285  1.05976749417115
 33   6.93567429305493  1.21829353284384
 34   6.81398421909483  1.37952686866027
 35   6.68923355557387  1.54247274754952
 36   6.56075821374699  1.70629228342825
 37   6.42788177853451  1.87028790307284
 38   6.28993454062979  2.03388426518245
 39   6.14626583979097  2.19660569735555
 40   5.99625380039018  2.35805129796144
 41   5.83931589741203   2.5178688565632
 42   5.67492308798237  2.67572870653256
 43   5.50261929782715  2.83129876701549
 44   5.32204659173824  2.98422249184014
 45   5.13297423033342  3.13410209212482
 46   4.93532725195154  3.28048981378542
 47   4.72920804682096  3.42288962826682
 48   4.51490395304724  3.56076997593966
 49   4.29287636542674  3.69358536290331
 50   4.06373202648418  3.82080177404524
 51   3.82818291369134  3.94191965595241
 52   3.58700443563547  4.05648956836638
 53   3.34100088822353  4.16411883612319
 54   3.09098312072483  4.26447092656054
 55   2.83775812978118  4.35726142606048
 56   2.58212530904135  4.44225499895627
 57   2.32487015136701  4.51926673366438
 58   2.06674485992766   4.5881688605851
 59   1.80842951073387  4.64890011562305
 60   1.55047883231893  4.70147138334757
 61      1.29327341753  4.74596062528092
 62   1.03699842952065  4.78249453754809
 63  0.781660394180532  4.81122149728225
 64  0.527132228319166  4.83228445123953
 65   0.27320509874787  4.84580057096708
 66  0.0196296279435949   4.8518494641559
 67  -0.233859172739463  4.85046790402323
 68  -0.487528982735045   4.8416481863572
 69  -0.741640478872657    4.825338472423
 70  -0.996431262373203  4.80144547092105
 71  -1.25208569037338  4.76984166218723
 72  -1.50868917697216  4.73037995227619
 73  -1.76617676032934  4.68291678421577
 74  -2.02429607107773  4.62734014144293
 75  -2.28260377447706  4.56359443602103
 76  -2.54049853583154   4.4916944187675
 77  -2.79727409819926  4.41172593491445
 78  -3.05216922049463  4.32383807949152
 79  -3.30440000074396  4.22823399468161
 80  -3.55317402424655  4.12516556074947
 81  -3.79769472426115  4.01493336404195
 82  -4.03716622244522  3.89789008087095
 83  -4.27080643249433  3.77444359273653
 84  -4.49787195946173  3.64505571537146
 85  -4.71769346770495  3.51023341425231
 86  -4.92971556656898  3.37051180250408
 87  -5.13353238274935   3.2264314323566
 88  -5.32891043202705  3.07851496375138
 89  -5.51579425414206  2.92724886859312
 90  -5.69429557957474  2.77307423015859
 91  -5.86467094315898  2.61638800955822
 92  -6.02729418856372  2.45755376873377
 93  -6.18262943367076  2.29691955030222
 94  -6.33120792280575   2.1348404121448
 95  -6.47360988295297  1.97170353567531
 96  -6.61045063930726  1.80795435594198
 97   -6.7423689505542  1.64412247727074
 98  -6.87001463075265  1.48084618801902
 99  -6.99403180951501  1.31889433149795
100  -7.11503355038172  1.15918430803561
101  -7.23356316357912  1.00279500074026
102  -7.35003789161667 0.850972943200057
103  -7.46467246077311 0.705128421814931
104  -7.57738419607394 0.566815274651127
105  -7.68768906857353 0.437684776497811
106  -7.79461066337746 0.319401584696879
107  -7.89664407541469 0.213508529048569
108  -7.99184798367755 0.121224237550155
109  -8.07818340915358 0.0431470804789638
110   -8.1542621140191 -0.0211794096360404
111   -8.2206071586061 -0.0738538416422676
112  -8.28093928610257 -0.119005435800733
113  -8.34092612479177 -0.161328879292382
114  -8.40221199085591 -0.201950180567721
115  -8.49269740364239 -0.257181192047941
116  -9.25426065312971 -0.530361238037122
117  -9.95880947667529 -0.280332130376108
118  -10.1396921528542   0.1824690351184
119  -10.0276172356269 0.692759405081208
120  -9.67616621375989  1.16034169528153
121   -9.2116701736545  1.52724317814789
122  -8.37099402667822  1.98063245960068
123  -7.51804800072356  2.38328089156724
124  -6.66463191035234  2.77652096294782
125  -5.82720155845887  3.19528696670591
126  -5.01768058921933  3.65732560062078
127  -4.21527689100212  4.13929552767407
128   -3.2519280395461  4.54766036214265
129  -2.21888332731426  4.85674918118708
130  -1.16814752635681  5.01823211910427
131  -0.140233547231639  5.70627892183612
132   0.89918693712652   5.6513605968028
133   1.93199964766694  5.46803458796517
134   2.94380837890674  5.17224352558444
135   3.92623724437524  4.78068268184601
136   4.87768031359281  4.31770271314564
137   5.80081485249503  3.83182202845304
138   6.66526013412953  3.39800897743466
139   7.52732791296656  2.99704885747267
140   8.38063105216737  2.59017462607612
141   9.18793991133975   2.0975558862867
142   9.60753921860089  1.73696866371188
143   10.0255011454343  1.24268623750742
144   10.3610836463099 0.647310258059697
145   10.5965600579121 0.0065471011324344
146   10.7658419749899 -0.626601786010519
147   10.7883218674835 -1.52383033047519
148   10.6228466897586 -1.96288831002167
149   10.3752563655016 -2.31291246291076
150   10.0700291727728  -2.5830563345179
151   9.72543177939532 -2.77768841942357
152   9.35918631016533 -2.90041928408096
153   8.98799297075222 -2.95747792431843
154   8.62420286352682 -2.95804398843307
155   8.27508453549181 -2.91215887504265
156    7.9440073264405 -2.82906905698806
157   7.63192965333611 -2.71661498036568
158   7.33850049275932 -2.58125638812347
159   7.06271284020051 -2.42831499853635
160   6.80324531468339 -2.26222048340261
161   6.55862986348015 -2.08669258973862
162    6.3273371017296 -1.90486078096633
163   6.10782856841685 -1.71934409007416
164   5.89859756254505 -1.53231320896199
165   5.69820512834296 -1.34554835231774
166   5.50531106193307 -1.16049746675355
167   5.31869801529632 -0.978333319154065
168   5.13728727848071 -0.800005622873382
169   4.96014587822044 -0.626284673769622
170   4.78648531999998 -0.457794468392601
171   4.61565241790892 -0.295034866920153
172   4.44711247069501 -0.138393654001458
173   4.28042501407454 0.0118495616404041
174   4.11521293597397  0.15552458680716
175   3.95112709226313 0.292572930513592
176   3.78781050805256 0.423046327264283
177   3.62486803958132 0.547096937346799
178   3.46184778961461 0.664956468787219
179   3.29823854438814  0.77690482005752
180   3.13348311679601 0.883232685177983
181   2.96700252610371 0.984205035381777
182   2.79822297918241  1.08003207569042
183   2.62659805592169  1.17085138619345
184   2.45162173316971  1.25672112911961
185   2.27283233796798    1.337621105942
186   2.08981208516673  1.41345688020502
187   1.90219081387922  1.48406235693935
188   1.70966422103142  1.54919840999778
189   1.51203302344893  1.60854946923566
190   1.30925792511456  1.66172489976067
191   1.10151075515238  1.70827364504768
192  0.889197012453881  1.74771566000047
193  0.672937516491343  1.77958448402492
194  0.453518525439926  1.80346937500854
195  0.231832730760666  1.81904737767841
196  0.0088301825824334  1.82610250345842
197  -0.214514174310271  1.82453474498653
198  -0.437220406029112  1.81436306578671
199  -0.658320089167137  1.79572477701285
200  -0.876879516380656  1.76887078902434
201  -1.09203754281191  1.73415353747318
202  -1.30305902724021  1.69200351782304
203  -1.50939277265615  1.64289321452519
204  -1.71071233503596  1.58729370889458
205  -1.90692008705347  1.52563504941607
206  -2.09811248869292  1.45828069349989
207  -2.28452481705721  1.38551848054411
208   -2.4664800464537  1.30756220713338
209  -2.64435684935538  1.22455528224732
210  -2.81857720273748  1.13657116717542
211  -2.98960518527988  1.04361028127899
212  -3.15794703214359 0.945596624671391
213   -3.3241452648407 0.842378771399885
214  -3.48876387419635 0.733739446774936
215  -3.65236588550533 0.619415912424108
216  -3.81548850452924 0.499130187098583
217  -3.97862329052399 0.372624718035736
218  -4.14220821373239 0.239697076885783
219  -4.30663504026543 0.100227744846909
220  -4.47227093894602 -0.0458021986400597
221   -4.6394897260599 -0.198303143107944
222  -4.80870693684862 -0.35707565652562
223  -4.98041367750305 -0.521811402431854
224  -5.15520592770025 -0.692091804529715
225  -5.33380762763663 -0.867380716204666
226  -5.51708693860831  -1.0470083088067
227  -5.70606542667036 -1.23014435263608
228  -5.90191982745353 -1.41576007242693
229  -6.10597590779009 -1.60257896780464
230  -6.31969411299411 -1.78901833779322
231  -6.54464724848872 -1.97312410798668
232  -6.78249084678084 -2.15250065318334
233  -7.03492567585227 -2.32423325223397
234  -7.30364655746509 -2.48479328895077
235  -7.59025866270806 -2.62990752426019
236  -7.89611717683366 -2.75436909110225
237  -8.22200514160927 -2.85178274421796
238  -8.56751390892028 -2.91429553010437
239  -8.92997569341357 -2.93250195268371
240  -9.30296012425445 -2.89592795527966
241  -9.67494993202418 -2.79455468857644
242  -10.0298104997722   -2.620945815634
243  -10.3500459051027 -2.37022714102234
244  -10.6176444561483 -2.03670285737471
245  -10.8083168203899 -1.61006848121317
246  -10.8390581421147 -0.725670882352819
247  -10.7054506186479 -0.0852173140861762
248  -10.5035134151615 0.566146645331771
249   -10.195102016023   1.1752030890833
250  -9.79714120418783  1.68081491184279
251  -9.38811337371977  2.05121329406929
252  -8.59028037010466  2.55407986494422
253  -7.74034178383066  2.96214885283004
254  -6.87956500139254  3.35750079743178
255  -6.01996976629602  3.78198698734179
256  -5.10445991554242  4.26229084962038
257  -4.15868509408028  4.73156360462417
258  -3.18328486724278  5.13456704878146
259  -2.17953745887038  5.44044500441039
260  -1.17461528009701  5.62840510462461
