// Id               X                Y
  1  -0.93020474377046  5.70275484424358
  2  0.128548949300088  5.73640643343895
  3   1.16632343630565  5.58939793357779
  4   2.16702551840455  5.26292424111734
  5   3.11693946209481  4.78165829143379
  6   3.99716394137132  4.18358592135441
  7   4.81696787049793  3.51848027038374
  8    5.5482098266482  2.78530223106956
  9   6.12058676425642  1.99672961408658
 10   6.45609772196079  1.12266179126232
 11   6.41811954312217 0.193372318058793
 12   6.14690491803612 -0.259924603832405
 13   5.63257328648631 -0.571978149414224
 14   4.95569265873047 -0.461585729517786
 15   4.66254014448452 0.180817328681334
 16   5.26129094066682 0.762664431168457
 17   5.57140529206155  1.11686617517718
 18   5.63047073272353  1.36304584878892
 19   5.62405698359663  1.54898737128522
 20   5.58634564758853  1.71518267927645
 21   5.52717823408645   1.8684982585164
 22   5.45244901267912  2.01282960976019
 23   5.36778464935199   2.1491609495423
 24   5.27754848648094  2.27843760446544
 25   5.18458367764827  2.40195528163975
 26   5.09017687657397  2.52157004374863
 27     4.994822091728  2.63843962383906
 28   4.89871363652871  2.75377581491892
 29   4.80168869470286   2.8679994151651
 30   4.70362316117603  2.98151341699705
 31   4.60419401507344  3.09435957796755
 32      4.50341733949  3.20638634317497
 33    4.4006053855147  3.31746801216363
 34   4.29596738299724  3.42733973619053
 35   4.18913384090346  3.53604965616343
 36   4.08006719108016  3.64330296034383
 37   3.96858486665456  3.74880745922057
 38   3.85467686312291  3.85263230288414
 39   3.73824718739313  3.95447311359793
 40   3.61904390582218  4.05408079737194
 41   3.49716225453735  4.15130874185534
 42   3.37249772342979  4.24605520730082
 43   3.24512982108255  4.33800467827206
 44   3.11498472861785  4.42724856673294
 45    2.9822396994258  4.51359864520387
 46    2.8469137074545  4.59709074818628
 47   2.70904062249275  4.67743673126956
 48   2.56854711522117  4.75435466938114
 49   2.42556799682447  4.82774682052259
 50   2.28012253502155  4.89758030735426
 51   2.13249663882977  4.96382936265396
 52    1.9826346370802  5.02628104369889
 53   1.83068319003827  5.08481161704843
 54   1.67680888301108  5.13946279612528
 55   1.52103075561726  5.19005691447507
 56   1.36351184485749  5.23637825341087
 57   1.20435763343591  5.27820854965568
 58   1.04370583237533  5.31560070348518
 59  0.881775713701177  5.34861922454248
 60  0.718656637373303  5.37718078856137
 61  0.554546426958175  5.40121369813592
 62  0.389571221789707  5.42060225923138
 63  0.223902298170055  5.43516127322467
 64  0.0576445396514343  5.44490589365836
 65  -0.108934319504521  5.44985788541109
 66  -0.275746555746601  5.44990251642428
 67  -0.442513659797433  5.44537944012332
 68  -0.609201248205787  5.43601228312084
 69  -0.775543659594992   5.4218473936364
 70  -0.94143591815117  5.40296515008778
 71  -1.10665001894949  5.37921728866676
 72  -1.27099003419262   5.3505976794584
 73  -1.43437238786538  5.31730367674302
 74  -1.59662517538272  5.27949260628768
 75  -1.75757416729213  5.23710889835963
 76  -1.91711225120237  5.19038551960896
 77  -2.07505885121683   5.1392515308604
 78  -2.23122961611762  5.08365785646881
 79   -2.3854860887425  5.02364094109912
 80  -2.53775021100623  4.95954397874482
 81  -2.68789313535078  4.89148578248692
 82   -2.8358910450185  4.81958565957725
 83  -2.98148641326968  4.74379144784051
 84  -3.12471660665576  4.66431237794714
 85  -3.26544522279711  4.58132916966784
 86   -3.4034761768722  4.49476569895014
 87   -3.5387991075198  4.40473264567396
 88  -3.67136077526754  4.31147194531966
 89  -3.80121786990648  4.21523249400196
 90  -3.92838788926785   4.1161646964883
 91  -4.05261945992379  4.01422834926103
 92  -4.17400716994304  3.90955445090009
 93  -4.29254972523381  3.80228799723493
 94  -4.40814414619711   3.6925363260041
 95  -4.52100787518571   3.5805466571103
 96  -4.63118445614048  3.46654087037372
 97  -4.73880043565982  3.35062349960929
 98  -4.84398118541533   3.2330036028385
 99  -4.94694326859866  3.11381241786091
100  -5.04762344422329  2.99330722331151
101  -5.14639885685112  2.87134214002961
102  -5.24338331209474  2.74837618136931
103  -5.33894035651792  2.62415837330003
104  -5.43326824018805  2.49879204858884
105  -5.52674991100961  2.37203099342087
106  -5.61950987763972  2.24317965580341
107  -5.71153313596958  2.11107946894938
108  -5.80247139111692  1.97406639706247
109  -5.89132443290188   1.8299883468272
110   -5.9750358847084  1.67656001917468
111   -6.0484280972385  1.51265158700834
112  -6.10365779855699  1.33832585864713
113  -6.13201324368318  1.15120544430323
114  -6.12020781420979 0.944785673684374
115  -6.03057317825422 0.696467491754641
116  -5.68089289644212 0.382485668550394
117  -5.01668040415818 -0.119845589164782
118  -5.19926267252534 -0.801761267186701
119   -5.8340696065973 -1.05682956256721
120  -6.39000766699135 -0.889700593471327
121  -6.76316759815399 -0.524354711491903
122  -7.00936898006881 0.364696851123895
123   -6.8403356210722  1.26936668969643
124    -6.400746403872  2.08943651842452
125  -5.82151822533269   2.8171701569754
126  -5.16310224382626  3.47044239550682
127  -4.46832011369388  4.08247692818392
128  -3.72127248084409    4.642857545732
129  -2.90037551894481  5.11257329177773
130  -1.92662289884939  5.46767290869231
131  -0.618224155056189  6.20510940868812
132  0.501603986085304  6.18941681536087
133   1.61027547176569  5.98056037295184
134   2.66477393731395  5.58808301868982
135   3.64815408776774  5.05428751042425
136   4.56647505304021  4.40594312285402
137   5.41310326779335  3.66602952492922
138   6.16014010504824  2.82348173010025
139   6.71681869849834  1.83980890980683
140   6.92288827494185 0.722331377712399
141   6.52251211956402 -0.345538445483172
142   5.89971237015174 -0.749667174065403
143   5.15701508374296 -0.774230764641489
144   4.47810058283126 -0.487389170642485
145    3.8851891794948 -0.12411002536277
146   3.10961367011561  0.13766483011885
147   3.02376945374016 0.198521281256944
148   2.96150729404419 0.251145559011802
149    2.9032523452162  0.30718158578896
150   2.84790122753562 0.366464657524866
151   2.79510371898115 0.427971433769961
152   2.74378001381114 0.491604038710369
153   2.69393995233646  0.55607269926986
154   2.64413278816948 0.622018875681081
155   2.59413446719829 0.688783286080278
156   2.54393047384453  0.75577446570155
157   2.49307875287938  0.82289938369534
158   2.44196441170945 0.889353128277895
159   2.39012912753788  0.95533475851124
160   2.33711972989138  1.02132136131971
161    2.2833713457996  1.08638115865888
162   2.22878265599904  1.15051913906666
163   2.17311081298478  1.21389579080349
164   2.11656045982508  1.27599742061981
165   2.05869067756887  1.33736165331376
166   1.99948721635134  1.39791876019318
167   1.93960919087803  1.45682768125313
168   1.87846358269832  1.51444914642275
169   1.81602482594124  1.57098516228588
170   1.75266259959211  1.62610615903434
171   1.68788228447542  1.68013032135762
172   1.62205546656765   1.7324892400944
173   1.55551645132664  1.78299380950764
174   1.48749993293651   1.8322869049279
175   1.41828159337943  1.87993709255734
176     1.348043108266  1.92560126588248
177   1.27651075317597  1.96951881904203
178   1.20428067374138  2.01132535074874
179   1.13093207740029  2.05123369449687
180   1.05605526351169  2.08927130681186
181  0.980570047027483   2.1250549573413
182  0.904242434769413   2.1587656502971
183  0.827011674495495  2.19036305898549
184  0.749151493767285  2.21975360412575
185  0.670064934534521   2.2470761241193
186  0.590416014305252  2.27205982077526
187  0.510453507724206  2.29459853689044
188  0.429636722823936  2.31481070423284
189  0.348328860267594  2.33252184047726
190  0.266347297604009  2.34781846821947
191  0.183971600013872  2.36068052734161
192  0.101683992769649  2.37098643410282
193  0.0188981485939057    2.378791324753
194  -0.0641666426178932  2.38406967752822
195  -0.147372556409316  2.38689628354639
196  -0.230610425033822  2.38720688698883
197  -0.313461171202841  2.38500794121769
198  -0.396438806212131  2.38034475341421
199  -0.479414424243072  2.37310269398181
200  -0.562040111135228  2.36341021663636
201  -0.644380189386646  2.35122117482795
202  -0.725972096621493  2.33651507131387
203  -0.807352256527066  2.31937410836934
204  -0.888450901840004    2.299664294081
205   -0.9686060214256  2.27757170601768
206  -1.04820334689914  2.25307989799228
207  -1.12683658990586  2.22627453491346
208  -1.20474909665255  2.19718120763624
209  -1.28233511874444  2.16576908674959
210  -1.35851619844637   2.1322872372843
211  -1.43376575114577  2.09671314773816
212  -1.50823464858322  2.05902198009793
213  -1.58144080357071  2.01939679711377
214  -1.65394701211825  1.97732301505238
215  -1.72511334511308  1.93347936761045
216  -1.79469113216621  1.88802042845698
217   -1.8635838135719  1.84034020798215
218   -1.9310971997405  1.79100707849612
219  -1.99736482285016  1.73995604992172
220  -2.06266793634697  1.68711964532037
221  -2.12618383801394  1.63328444699804
222  -2.18877380597172  1.57777532846632
223  -2.25057768675237  1.52055655533332
224   -2.3106468770125  1.46242799116973
225  -2.36969213880626  1.40281543793466
226  -2.42752347844797   1.3421383446424
227  -2.48378673979088  1.28057798503751
228  -2.53949977380618  1.21726958590919
229  -2.59385661489848  1.15322327569475
230  -2.64664414763274  1.08867973798747
231  -2.69884425395771  1.02286926560318
232  -2.74980945489362  0.95660561131963
233  -2.79989377106455 0.889569810451914
234   -2.8494355935135 0.821571620081098
235  -2.89763903415982 0.754124326753549
236  -2.94533029746084  0.68626805163739
237  -2.99270741440297 0.617962763605468
238  -3.03920747272617 0.550592837845874
239  -3.08582170031274 0.483450867960772
240  -3.13164309337318 0.418617747012723
241  -3.17816713879503 0.354961859772623
242  -3.22589724787288 0.293068298400344
243  -3.27552371619969 0.233133868519471
244  -3.32751575316823 0.175746146428367
245  -3.38381183256006 0.120131157612039
246  -3.46421058253676 0.0518919812335825
247  -4.20096121735719 -0.304314712388024
248  -4.72209294826344 -0.755081670599529
249  -5.32908460529601 -1.16617367679212
250  -6.05514686600145 -1.30686402399999
251  -6.75321841391506 -1.06117905562313
252  -7.38727861625448 -0.116025826005696
253  -7.40351317158123  1.02093445362721
254  -7.01361108151695  2.08327669553921
255  -6.38746218329735  3.01987244333952
256  -5.62158248319149  3.85265502520086
257   -4.7652019171407  4.58861315724133
258  -3.83034115564312   5.2088812374647
259  -2.81444755090352  5.69897731601086
260  -1.72868649566943  6.02883932593506
