// Id               X                Y
  1  -0.70922296178236  4.73348553986679
  2  0.339098828007171  4.72445350183922
  3    1.3652949118052  4.56458758434778
  4   2.36967600684132  4.26448095691506
  5   3.34100860747683  3.81225510713456
  6   4.25706685040908  3.26846313387907
  7   5.15436110823424  2.70680128441002
  8   6.01922554067168  2.12679327566242
  9   6.78286454507641  1.51869727163374
 10    7.3928990426251  0.80990052057898
 11   7.73418510434125 -0.0476627542692424
 12    7.7083025003225 -0.568662344698079
 13   7.45785722600968 -1.06611692336297
 14   6.86078771624941 -1.37924372967358
 15    6.2302316240711 -1.08267034161461
 16   6.29846653460367 -0.250140483168912
 17   6.34174885361633 0.214633400933657
 18   6.31097397875544  0.37603630893002
 19   6.28068523020145 0.474438032816313
 20   6.24545450254503 0.564578545267835
 21   6.20592746017842  0.64973784523375
 22   6.16162727619353 0.733216921482402
 23   6.11151035828857 0.818114984393266
 24   6.05469408998466 0.906267358274399
 25   5.99090259971949 0.998439398411426
 26    5.9203459676343  1.09468306760128
 27   5.84357666686863  1.19470103111124
 28   5.76127590088341  1.29804303945796
 29   5.67411274823143  1.40421817266948
 30   5.58265729022244  1.51274160991007
 31   5.48734748475088  1.62315388261988
 32   5.38848839179053  1.73502657310455
 33   5.28626877279055  1.84796287647058
 34    5.1807840555483  1.96159612662732
 35   5.07205956411179  2.07558758004182
 36   4.96007113181355  2.18962383569999
 37   4.84476217431947  2.30341395614858
 38    4.7260572797858  2.41668629624346
 39   4.60387276701577  2.52918510642872
 40   4.47812474693252  2.64066705763941
 41   4.34873517466233  2.75089788369188
 42   4.21563629469534   2.8596493380805
 43   4.07877380295782  2.96669662331385
 44   3.93810898987205  3.07181639067006
 45   3.79362008569615  3.17478534497379
 46   3.64530299698116  3.27537943558799
 47   3.49317159474047  3.37337357729213
 48   3.33725768735062  3.46854182355383
 49    3.1776107833838  3.56065790706735
 50   3.01429772237829  3.64949606427988
 51     2.847402226584  3.73483206807393
 52   2.67702440548011  3.81644440279399
 53   2.50328022829594  3.89411552637901
 54   2.32630096811971  3.96763317434645
 55   2.14623261409103  4.03679166925446
 56   1.96323524486549  4.10139320691734
 57   1.77748235604239  4.16124909713353
 58   1.58916013557711  4.21618094214275
 59   1.39846668348954  4.26602174059877
 60   1.20561117475006  4.31061690863874
 61   1.01081296660187  4.34982521272744
 62  0.814300653489117  4.38351961141072
 63  0.616311074093764  4.41158800496705
 64  0.417088275752767   4.4339338932407
 65  0.216882441822745  4.45047694271778
 66  0.0159487875149993  4.46115346422051
 67  -0.185453570516394  4.46591680250731
 68  -0.387062765853894   4.4647376386444
 69  -0.588615350542852  4.45760420533154
 70  -0.789847475288036   4.4445224144996
 71  -0.990496077039587  4.42551589552922
 72  -1.19030006924962  4.40062594145734
 73  -1.38900152986699  4.36991135963174
 74  -1.58634688195414  4.33344822254347
 75  -1.78208806180517  4.29132951411767
 76  -1.97598366979919  4.24366466668518
 77   -2.1678001001327   4.1905789843025
 78  -2.35731264721228  4.13221294914963
 79  -2.54430658895663  4.06872140953123
 80  -2.72857825052236  4.00027265066369
 81  -2.90993605578118  3.92704735310458
 82  -3.08820157769636  3.84923744857435
 83  -3.26321060167082  3.76704488931429
 84  -3.43481421668799   3.6806803553916
 85  -3.60287994603586  3.59036193495806
 86  -3.76729292085028  3.49631382584929
 87  -3.92795708406611  3.39876512334594
 88  -4.08479638869226  3.29794877813478
 89   -4.2377559228288  3.19410082916276
 90  -4.38680285622237  3.08746003510677
 91  -4.53192706254789  2.97826804022205
 92  -4.67314123179179  2.86677020760987
 93   -4.8104802507905  2.75321722617305
 94  -4.94399959627166  2.63786753837974
 95  -5.07377244670957  2.52099054125949
 96  -5.19988516295135   2.4028703898993
 97  -5.32243069452886  2.28381010207247
 98  -5.44149932483007  2.16413555775438
 99  -5.55716598108549   2.0441989430066
100  -5.66947315961188  1.92438122068738
101  -5.77840849364747  1.80509329800379
102  -5.88387639329023   1.6867756370095
103  -5.98566446438529  1.56989604002234
104  -6.08340821056554  1.45494517422879
105   -6.1765626348004  1.34242883587434
106  -6.26439748182696  1.23285370000131
107  -6.34604338275507  1.12669549350467
108  -6.42062291196385  1.02431938266077
109  -6.48748475836079 0.925793560976423
110  -6.54649292398227 0.830527022678923
111  -6.59819993238754 0.736741114808065
112  -6.64359049153797  0.64108122607433
113  -6.68304843457546  0.53933526103408
114  -6.71535622459567 0.427554262737061
115  -6.74245925165138 0.244962282268722
116  -6.66244531425861 -0.216272857185764
117  -6.50928694548135 -1.03778154541524
118  -7.07840430208897 -1.43622389925546
119  -7.72662577758009 -1.26571409892557
120  -8.07838560484066 -0.852534242775699
121  -8.21720279288267 -0.360162030772739
122  -8.03383205314579 0.533516470283938
123   -7.5148662467923  1.28730700745561
124  -6.81740099467564  1.90007511347411
125  -6.04691830464866  2.42596344236713
126  -5.25588428313017  2.92001066143318
127  -4.46142503497722  3.40968890687794
128  -3.65386220845243  3.88599821304126
129  -2.73689608848377  4.30015731778031
130  -1.72690112826561  4.56783153930721
131  -0.42352407739355  5.24877913990269
132   0.68193260206454   5.2076749818554
133    1.7680192810458  5.00247861630829
134   2.81469503373598  4.64928776930799
135   3.80844454249176   4.1731871140865
136   4.75792893712297  3.61803648104139
137   5.68265783242742   3.0208279188206
138   6.58037133939555  2.37613762790275
139   7.39227480921514  1.61923293616517
140   7.99517752759485 0.677025418491236
141   8.12494441504519 -0.440786921767666
142    7.8131735907706 -1.09753052681509
143    7.2365750363668 -1.53993878513457
144   6.54524091320267 -1.74247527081003
145   5.89056517566034 -1.84944368651712
146   5.13119567449998 -2.14235966067303
147   4.97939328229369 -2.13503105032336
148   4.84360654887144 -2.10128575015249
149   4.71509801204279 -2.04522248791054
150   4.59616895525176 -1.97183319545014
151   4.48674484948491 -1.88535544046011
152   4.38590975467389 -1.78947235150497
153   4.29227623121751 -1.68732732899443
154   4.20424410871108 -1.58140896565769
155    4.1202465763766 -1.47353410970024
156   4.03891250354983 -1.36494221307907
157   3.95913041981615 -1.25643531714747
158   3.88004501519329 -1.14851324892876
159   3.80102112244398 -1.04148189563956
160   3.72159830313522 -0.935530365657647
161   3.64144772486052 -0.830781523683994
162   3.56033591586932 -0.727323087370249
163   3.47809636685524 -0.625225985905376
164   3.39460834326193 -0.524554960821252
165   3.30978169196934 -0.425374626902715
166   3.22354634360572 -0.327752886430208
167   3.13584534789155 -0.231762752064831
168   3.04663048818727 -0.137483161684327
169   2.95585973055612 -0.044999123434012
170   2.86349594257222 0.0455985924531892
171    2.7695064608921 0.134214060494498
172   2.67386319754094 0.220746987300395
173   2.57654305938104 0.305093588138472
174   2.47752851962473 0.387147484793746
175   2.37680822950197 0.466800577913319
176   2.27437759585203 0.543943865353803
177   2.17023927893847 0.618468192824809
178   2.06440358593677 0.690264933971788
179   1.95688875066495 0.759226604126688
180   1.84772110036229 0.825247415837145
181   1.73693511669022  0.88822378572451
182   1.62457340155504 0.948054801996739
183   1.51068655965158   1.0046426607314
184   1.39533300949222  1.05789307736939
185   1.27857873368115  1.10771567808205
186   1.16049697774753  1.15402437401545
187   1.04116790527402  1.19673771999083
188  0.920678215550506  1.23577925809349
189  0.799120728667213  1.27107784571192
190  0.676593941889537  1.30256796696791
191   0.55320156033849  1.33019002606991
192  0.429052004416258  1.35389062088552
193  0.304257896029904  1.37362279492655
194  0.178935525436762  1.38934626593828
195  0.0532043004215205  1.40102762935533
196  -0.0728138205190429  1.40864053500834
197  -0.198994909291841  1.41216583562219
198  -0.325213661889138  1.41159170582701
199  -0.451344002847673  1.40691373060178
200  -0.577259698642019  1.39813496228233
201  -0.702834978117322  1.38526594548987
202  -0.827945158016402  1.36832470957011
203  -0.95246727159937  1.34733672837175
204  -1.07628069827425  1.32233484742947
205  -1.19926779202935  1.29335917883717
206  -1.32131450624589   1.2604569642841
207  -1.44231101212588  1.22368240685423
208  -1.56215230743793  1.18309647222717
209  -1.68073881150099  1.13876665982845
210  -1.79797694123169  1.09076674421388
211   -1.9137796616305  1.03917648648706
212  -2.02806700226072 0.984081314786995
213  -2.14076652912421 0.925571971793733
214  -2.25181375898046 0.863744125745176
215  -2.36115250082303 0.798697939637066
216   -2.4687351072896 0.730537591158475
217  -2.57452261776363 0.659370733689655
218  -2.67848477552446 0.585307886736508
219  -2.78059990437427 0.508461743123045
220  -2.88085463672082 0.428946381013529
221  -2.97924349625308 0.346876372521083
222  -3.07576835536305 0.262365788466746
223  -3.17043781176528 0.175527111702999
224  -3.26326656210745 0.0864700895276995
225  -3.35427489519897 -0.0046994217961019
226  -3.44348848751479 -0.0978805425909852
227  -3.53093876460295 -0.192978282929881
228   -3.6166642025039 -0.289904157179736
229  -3.70071309494696 -0.38857634486112
230  -3.78314851838527 -0.488919187501608
231  -3.86405649811909 -0.590861677236664
232  -3.94355870980095 -0.694334273465737
233  -4.02183139761954 -0.799262690497676
234  -4.09913243129587 -0.905555962663793
235  -4.17583829595368  -1.0130838782332
236  -4.25249179417581 -1.12163594623339
237  -4.32985832783286  -1.2308516715978
238  -4.40898199033829 -1.34011304333105
239  -4.49122013795817 -1.44839924773199
240  -4.57821803674416 -1.55412492613402
241  -4.67177888967483 -1.65501663559055
242  -4.77362345822677 -1.74810675301198
243  -4.88511402371629 -1.82985740495959
244  -5.00691235298155 -1.89617633019364
245  -5.13730458731239 -1.94198113656626
246  -5.28763406261397 -1.96431290980269
247  -6.07602136615425 -1.75970384614645
248  -6.71932050747991 -1.75664015672573
249  -7.43096566835718 -1.68992567493182
250  -8.08497578155871 -1.38040516500851
251  -8.52682652393708 -0.804753675813054
252  -8.60816268020832 0.315998480896248
253  -8.13081031999929  1.32896279892283
254  -7.37934716248405  2.14826181849257
255  -6.50659974484482  2.82904845346931
256  -5.58254387070158  3.43461209561607
257   -4.6293246626894  3.99359934856536
258  -3.63900290421248  4.48820768747543
259  -2.60138264407755  4.87675332360535
260  -1.52337349128666  5.13091366865753
