// Id               X                Y
  1  0.00896393137036292  1.55364677911797
  2  0.983088519604087   1.5928263776582
  3   2.00077306312044  1.69655180205413
  4   3.02868509515004  1.80959609258419
  5   4.06827295630259  1.83921197785398
  6   5.11098045057888  1.67708213899809
  7   6.01937135356845  1.32210574925197
  8   6.84132987907755 0.817884781506545
  9   7.51959956398598  0.15903578949343
 10    7.9421104570475 -0.669497224071866
 11   7.89827536358883 -1.60985796758012
 12   7.56014401083378 -2.01930372655857
 13   7.02817993229892 -2.19069489076607
 14   6.42991756045352 -1.93521945950483
 15   6.18645386431608 -1.33319192277843
 16   6.43139048688296 -0.621413741054801
 17   6.49672164531575 -0.328633307263418
 18   6.50502905295445 -0.074130781108801
 19    6.4700769807475 0.154621626663789
 20   6.39894570780155 0.364826707024405
 21   6.31073647707439 0.533848810666047
 22   6.20616259521557 0.682573667369512
 23   6.07495571853749 0.827484818668378
 24   5.91351108183086 0.967840492529663
 25   5.73779298347855  1.08986359014734
 26   5.55192664102491  1.19449920765614
 27   5.35899358858472  1.28307947882496
 28   5.16137487091224  1.35688567882757
 29   4.96160507893356  1.41691488828075
 30   4.78305830702287  1.45982263972928
 31   4.61193703710825  1.49244420125058
 32   4.44700606160554   1.5167440890314
 33   4.28711370559374  1.53419340389768
 34   4.13138971350391  1.54590043726009
 35   3.97922733373363  1.55273182653228
 36   3.83019673288484   1.5553955020481
 37   3.68397414731188   1.5544896109262
 38   3.54029892698159  1.55053103486466
 39    3.3989495170832  1.54397305701928
 40   3.25973018876834  1.53521720128481
 41   3.12246361612606  1.52462174282727
 42   2.98698662852955  1.51250816303891
 43   2.85314771040615  1.49916623481169
 44   2.72080547877914  1.48485813390169
 45   2.58982771584148  1.46982182141564
 46   2.46009071918502  1.45427385934175
 47   2.33147883348454  1.43841177232218
 48   2.20388408393424  1.42241603855645
 49    2.0772058639755  1.40645177283412
 50   1.95135064862196  1.39067015101786
 51   1.82623171581041    1.375209615524
 52   1.70176886491252  1.36019689413589
 53   1.57788812565731  1.34574785902448
 54   1.45452145329028  1.33196824862206
 55   1.33160640744973  1.31895427165438
 56   1.20908581334076  1.30679310994774
 57   1.08690740455431  1.29556333442029
 58  0.965023447444839  1.28533524681934
 59  0.843390347426627  1.27617115818551
 60  0.721968237921343  1.26812561364277
 61  0.600720553016151  1.26124557187615
 62  0.479613585184348  1.25557054652765
 63  0.358616029685463  1.25113271568434
 64  0.237698517498938  1.24795700462758
 65  0.116833138852196  1.24606114604241
 66  -0.00400704042348964  1.24545572093863
 67  -0.124848467341742  1.24614418260184
 68  -0.245717592554744  1.24812286496727
 69  -0.366641360984687   1.2513809758892
 70  -0.487647699784583  1.25590057486001
 71  -0.608766001164572  1.26165653381455
 72  -0.730027597708821  1.26861647873443
 73  -0.851466227938216  1.27674070883951
 74  -0.973118490041584  1.28598208921501
 75  -1.09502428189808  1.29628591176369
 76  -1.21722722574164  1.30758971838206
 77  -1.33977507607123  1.31982307922088
 78  -1.46272010968716  1.33290731778119
 79  -1.58611949703758  1.34675517338915
 80  -1.71003565440131  1.36127039024668
 81  -1.83453657683529  1.37634722072176
 82  -1.95969615231953   1.3918698287567
 83  -2.08559445820941  1.40771157714962
 84  -2.21231804207671  1.42373417989229
 85  -2.33996019048577  1.43978669757212
 86   -2.4686211915495  1.45570434985884
 87  -2.59840860081409  1.47130711399389
 88  -2.72943752611327  1.48639807153402
 89  -2.86183095722968  1.50076145666934
 90  -2.99572018355057  1.51416034708238
 91  -3.13124537292394  1.52633392053237
 92  -3.26855643782301  1.53699417345229
 93  -3.40781441001788  1.54582195474244
 94  -3.54919371950208  1.55246209433488
 95  -3.69288610022179  1.55651727199118
 96  -3.83910746524868  1.55754001214942
 97  -3.98811026666775  1.55502166205852
 98  -4.14020597889299  1.54837610150553
 99  -4.29580558490357  1.53691363152966
100  -4.45548736826188  1.51979628334405
101  -4.62008238771545  1.49596189144932
102  -4.79068091071473  1.46401692762843
103  -4.96806745997306  1.42222417112657
104  -5.16785361862623  1.36351926794406
105  -5.36615422677676  1.29132279147178
106  -5.56020466791268  1.20484183778443
107  -5.74787055164228  1.10286464863847
108  -5.92650934535406 0.983927468621504
109  -6.09256314429039 0.846521705618312
110  -6.24165409125648 0.689223356086282
111  -6.35645583500901   0.5305921588496
112  -6.45901334985129 0.332783906794251
113  -6.52856906866054 0.111619194573796
114  -6.55690466762807 -0.125359579428196
115   -6.5380302990973 -0.380837354330634
116  -6.45901799491212 -0.670198046308738
117   -6.1758584701521 -1.36819452192788
118  -6.38807588726344 -1.98615408546837
119  -6.97618093188967 -2.27008269526966
120  -7.51513807457005 -2.11712154018319
121   -7.8627619071626 -1.71663024306348
122  -7.91639101938393 -0.777944208409429
123  -7.49364272935749 0.0488891052968289
124   -6.8129989162975 0.704719224798936
125   -5.9894499409508  1.21435649262525
126  -5.06794099412732  1.60317927940573
127  -4.07697961348951  1.84163780496827
128    -3.040265286805  1.81596683305164
129  -2.01598080876897  1.69952305706702
130   -1.0078694102534  1.59394071057141
131  -0.00358872323904951  2.15570024631247
132   1.10927706125601  2.18233484126406
133   2.22012633156636  2.26492365630181
134   3.33374113917883  2.33835320744833
135   4.45157316559061  2.30479609711049
136   5.54657774267437  2.07755859764463
137   6.56011671641561  1.60554042781252
138   7.44723342009943 0.921466497340439
139   8.11954607935593 0.0185989134070878
140   8.39412952128278  -1.0800899632169
141   7.94945084217039 -2.12468950226631
142   7.31073112042298 -2.49278926410452
143   6.57717432873996 -2.45258356531063
144   5.94461179979154 -2.09462880836733
145   5.44542736914585 -1.58360710400366
146    4.6699456788533  -1.7348632610293
147   4.22695893879921  -1.7615833447539
148   4.19842234093383 -1.73299777751842
149   4.17891779138032 -1.70977589085125
150   4.16549005626909 -1.69283882074183
151   4.14060437360134 -1.66084794200649
152   4.11229707981813 -1.62781967297219
153   4.09299909609889  -1.6099238715993
154   4.08777786608553 -1.60586358810793
155   4.08265033379537 -1.60217412741647
156   4.07697221872572   -1.598420221118
157   4.07045774350996 -1.59451220279984
158   4.06277643750177 -1.59039323684983
159   4.05288687599145 -1.58575615365597
160   4.01854299099904 -1.57414168782745
161    3.9727530414794  -1.5645431801717
162   3.91710907951956 -1.55754816709503
163   3.85326768007431 -1.55294361282918
164     3.782555661526 -1.55045019120177
165   3.70593352220895 -1.54990966674359
166   3.62409939668482 -1.55124001867076
167   3.53758524555366 -1.55437516730828
168   3.44681679170736 -1.55923621550475
169   3.35214809521665 -1.56572407354908
170   3.25388199991902 -1.57372078573551
171   3.15228293298429 -1.58309328602086
172   3.04758543087426 -1.59369732485937
173   2.94000015385783 -1.60538093832134
174   2.82971834171449 -1.61798736399125
175   2.71691524749436 -1.63135745483867
176   2.60175286516417  -1.6453316710741
177   2.48438214525611 -1.65975172642158
178   2.36494482330892 -1.67446195404242
179   2.24357494505661 -1.68931044548663
180   2.12040014742868 -1.70415000546111
181   1.99554273870864 -1.71883895634363
182   1.86912061090286 -1.73324181920897
183   1.74124801037959 -1.74722989247061
184   1.61203618791214 -1.76068174483037
185   1.48159394566504 -1.77348363582677
186   1.35002809595007 -1.78552987466229
187   1.21744384446624 -1.79672312598867
188   1.08394510904523 -1.80697466978796
189  0.949634783534134  -1.8162046212871
190     0.814614955282 -1.82434211589328
191  0.678987083707678 -1.83132546336441
192  0.542852146578671 -1.83710227478009
193    0.4063107599062 -1.84162956531241
194  0.269463276746822 -1.84487383528328
195  0.132409869690856 -1.84681113151501
196  -0.00474939859128274 -1.84742709051754
197  -0.141914512681419 -1.84671696460275
198  -0.278985445767912 -1.84468563156449
199  -0.415862101269805  -1.8413475881138
200  -0.552444250981206 -1.83672692680822
201  -0.68863146588707 -1.83085729576339
202  -0.824323035601627 -1.82378183998231
203  -0.959417872081573  -1.8155531226805
204  -1.09381439286927 -1.80623302451769
205  -1.22741037862729 -1.79589261815866
206  -1.36010279913374 -1.78461201506283
207  -1.49178760121337 -1.77248018082038
208  -1.62235945127444 -1.75959471468166
209  -1.75171142418803 -1.74606158812214
210   -1.8797346291592 -1.73199483629014
211  -2.00631776195453 -1.71751619492253
212  -2.13134657130264 -1.70275467368554
213  -2.25470322537134 -1.68784605477769
214  -2.37626556178849 -1.67293230286089
215  -2.49590620146681 -1.65816086877059
216  -2.61349150211017 -1.64368386476968
217  -2.72888032105751 -1.62965708310656
218  -2.84192254792822   -1.616238822075
219  -2.95245735340438 -1.60358847448554
220  -3.06031107791994 -1.59186482248853
221  -3.16529464666701 -1.58122397060625
222  -3.26720033335236 -1.57181683765628
223  -3.36579758204643 -1.56378612457262
224  -3.46082739019745 -1.55726270130243
225  -3.55199436731211 -1.55236148790477
226   -3.6389548275558 -1.54917738354327
227  -3.72129776764812 -1.54778327692229
228  -3.79851263874244 -1.54823594592491
229  -3.86993305116502 -1.55060230929171
230  -3.93464423421708 -1.55501933546999
231  -3.99137583248727 -1.56175567712964
232  -4.03853509543674 -1.57109067581186
233  -4.07494807435339  -1.5828325033898
234  -4.08566842790074 -1.58771677483152
235  -4.09370044644372 -1.59193742890177
236  -4.10045876194014 -1.59592942832763
237  -4.10624362620018 -1.59970829032781
238  -4.11112168280263 -1.60317460322214
239  -4.11519038316816 -1.60627150786792
240  -4.11864305758101 -1.60904286976536
241  -4.13890590289578  -1.6281922591327
242  -4.14365305768183 -1.63301885527119
243  -4.14991554139787 -1.63953290954547
244  -4.16385600385973 -1.65428273374367
245  -4.19071933976553 -1.68071589643281
246  -4.63746501797689 -1.67913687456327
247  -5.42119833904039 -1.57489849111034
248  -5.89403018142437  -2.1116114204891
249  -6.50908704610374 -2.50127596393323
250  -7.24115648405748  -2.5764158711905
251  -7.89405917058025 -2.23164795406584
252  -8.36158387741678 -1.19614778321823
253  -8.09308965101225 -0.0952793764776805
254  -7.41965633462375 0.806962343547242
255  -6.53400543098832  1.49224660715837
256  -5.53272137030009   1.9872602790399
257  -4.45830112505055  2.29185506009963
258  -3.34142242459721  2.34614018263327
259  -2.22791887424566  2.27055884350425
260  -1.11690307879545  2.18994279628944
