// Id               X                Y
  1  -0.173224041740863  2.81794647654855
  2  0.806544760703161   2.8142055681061
  3   1.82448458636019  2.89535403683669
  4    2.8584282872477  3.01211530633115
  5   3.91339123890182  3.03521527470862
  6   4.85878311016445  2.80423981568614
  7   5.72297352280128  2.34685500198562
  8   6.50126177778702  1.75923242645742
  9    7.1561397661188   1.0621824068174
 10   7.59849541174738 0.235069556602124
 11   7.63868650596219 -0.707148112711975
 12   7.36242457666483 -1.15782260866985
 13   6.88595812513453 -1.41238953793713
 14   6.33028625248492 -1.33540356340868
 15     5.943660341558 -0.941389318187551
 16   5.83599344287048 -0.416731782192794
 17   5.84610684793252 -0.0306348266133755
 18   5.87426842738783 0.332658119160884
 19     5.888171887705 0.665439918170521
 20   5.87391086625703 0.979230543499688
 21   5.82447235000411  1.27457874829207
 22   5.74007730969182  1.54256663058185
 23   5.62977633330153  1.77210719453818
 24   5.51721051067987  1.94520065924733
 25   5.41531525629162  2.07117025213938
 26    5.3042920885578  2.18574681342374
 27   5.17754318819956  2.29510733355545
 28   5.02767732000342  2.40181329475014
 29   4.84822695345609  2.50442548079656
 30    4.6440761990281  2.59471429859982
 31   4.43131182298236  2.66457668062274
 32   4.21420451831501  2.71472845592982
 33   3.99636051194107  2.74691636719715
 34    3.7867776470688  2.76324285264502
 35   3.59166882636592  2.76735683372256
 36   3.41105312545976  2.76295602580437
 37   3.24207926409037  2.75268666108206
 38   3.08278041309683   2.7383438934805
 39   2.93169699891735  2.72120003363088
 40   2.78764639103374  2.70217580604954
 41   2.64964611009622  2.68194755894429
 42   2.51687194445363  2.66101897142632
 43   2.38862821169962  2.63977010389181
 44   2.26432468323149  2.61849144212733
 45   2.14345814755142  2.59740781560324
 46   2.02559751149616  2.57669538760262
 47   1.91037167508381  2.55649384588399
 48   1.79745961075301  2.53691523301169
 49   1.68658223960456   2.5180504069551
 50   1.57749579223735  2.49997381797046
 51   1.46998635044491  2.48274707000322
 52   1.36386529232485   2.4664215901013
 53   1.25896546711793  2.45104064412291
 54   1.15513798582326  2.43664087363154
 55   1.05224948618253  2.42325347318459
 56  0.950179751808038  2.41090509566273
 57   0.84881963152529  2.39961855717073
 58  0.748069224807979  2.38941339528796
 59  0.647836335057967  2.38030632200129
 60  0.548035244961175  2.37231160214898
 61  0.448585850901946   2.3654413709219
 62  0.349413128469269  2.35970588791983
 63  0.250446797995745  2.35511371628063
 64   0.15162096858018  2.35167181959743
 65  0.0528735488395638  2.34938558678462
 66  -0.045854710952951  2.34825881322985
 67  -0.144621535330865  2.34829367657765
 68  -0.243484594735302  2.34949073873116
 69  -0.342502844355582  2.35184898094489
 70  -0.441737507609974   2.3553658513309
 71  -0.541252651323353  2.36003728962032
 72  -0.641115472867327  2.36585769860974
 73  -0.741396493730023  2.37281984737022
 74  -0.842169874249456  2.38091470947381
 75  -0.943514008691733  2.39013125093379
 76  -1.04551242002627  2.40045617740064
 77  -1.14825491406176   2.4118736390622
 78  -1.25183895419805  2.42436488140359
 79  -1.35637121126717  2.43790781740673
 80  -1.46196929454275  2.45247649051616
 81  -1.56876371940056  2.46804039302048
 82  -1.67690016522253  2.48456359161368
 83  -1.78654211390106  2.50200359967654
 84  -1.89787400179741  2.52030991903257
 85  -2.01110500682861  2.53942213865512
 86  -2.12647361303743  2.55926743160952
 87  -2.24425317924458  2.57975723537241
 88  -2.36475881198513  2.60078281241776
 89  -2.48835590239402  2.62220924934515
 90  -2.61547080006633  2.64386725066762
 91  -2.74660429958382  2.66554178392421
 92  -2.88234892967772   2.6869561702547
 93  -3.02341156660178  2.70774948263023
 94  -3.17064398120461  2.72744392963994
 95   -3.3250867724698  2.74539692261661
 96  -3.48804303306059  2.76072907721046
 97  -3.66126928860618  2.77221285538286
 98  -3.84808755554503  2.77807505995378
 99  -4.05351166133699  2.77539664040749
100  -4.27675315650866  2.75981162406797
101  -4.50567190260588  2.72772672141908
102  -4.73039985745792  2.67751598245994
103  -4.95073534470222  2.60682339339866
104  -5.16347745424872   2.5139603940264
105  -5.36726013963129  2.39633353223151
106  -5.54099198553408   2.2667472183796
107  -5.69393577754879  2.12169228459904
108  -5.84133621210892  1.94063505668238
109  -5.97305986385207  1.71900144928782
110  -6.07595653033227  1.45611876425864
111   -6.1370772966553  1.15475160173099
112  -6.14673871582077 0.827561718649075
113  -6.10507994289192  0.48710181935265
114  -6.02087847390865 0.137660651702968
115  -5.90888764245705 -0.230547779912565
116  -5.80199719549793 -0.624933398373309
117  -5.77135162641796 -1.17697067804324
118   -6.0440958651728  -1.6752952937985
119  -6.56872728229943 -1.90919582309068
120  -7.09424406059414 -1.79260928280578
121  -7.46796477240161 -1.42750264395729
122   -7.6013422282109 -0.505336783319321
123  -7.25479754362218 0.350988824709271
124  -6.65246316447112  1.06684095390305
125  -5.92695481134069  1.66976490836923
126  -5.14680918670982  2.19619110167501
127  -4.32756952548171  2.65336268160735
128  -3.29140283178166  3.04349991176586
129  -2.23306073800064   3.0311583580753
130  -1.19940102426354  2.90875198464356
131  -0.229155824005559  3.41826338922137
132  0.889640970240909  3.40533649564457
133   2.00677607678157  3.47284689445364
134   3.12475584989462   3.5465140430762
135   4.24540338236839  3.51818826192576
136   5.31168838549854  3.18040125886175
137   6.27004502881407   2.6072051250716
138   7.10506832123377   1.8651356713619
139   7.76274784724854 0.957564659551761
140   8.09839670208927 -0.117987652701672
141   7.80252351246297 -1.20813517440004
142   7.25388167944545  -1.6855840177793
143   6.54091340580325 -1.81422998891059
144   5.85865356897165  -1.5870302026909
145   5.25696439143611 -1.20628357849637
146   4.51108844214447 -1.29313743750216
147   4.21515453080827 -1.26209678054736
148   4.10860837296016 -1.22184392532471
149    4.0292489138863  -1.1836821146019
150   3.97235873523027 -1.15389066926743
151   3.93560178206858 -1.13384744286596
152   3.91128344527579 -1.12025033914194
153   3.88771487702281 -1.10687073402019
154   3.84140675548709 -1.08031976157312
155   3.76842423043095 -1.03815523312368
156   3.69855465309008 -0.99789640042327
157   3.63872484283362 -0.964324040896601
158     3.595457694648 -0.941416761812034
159   3.57386335808354 -0.931290296407872
160   3.56864420043177 -0.929285218304311
161   3.56492622063932 -0.927998853634734
162   3.56047172844338 -0.926621517718895
163   3.55349990227578 -0.924791312694948
164   3.53645802816124 -0.92150211608973
165    3.5040294935592 -0.917352033621841
166   3.45663426914221 -0.913601846177524
167   3.39733187702694 -0.911284875851382
168   3.32819591647365 -0.910939831841174
169   3.25073382119614 -0.912802088585614
170   3.16614095993944 -0.916913306738196
171   3.07539124198414 -0.923189720778138
172   2.97928741644643 -0.931468418396821
173   2.87849627868784 -0.941539111558671
174   2.77357549232203 -0.953165880049733
175   2.66499468277099 -0.966101915965302
176   2.55315224988583 -0.98009938270434
177   2.43838887100099 -0.994915873737473
178   2.32099839811789 -1.01031851803098
179   2.20123664942796 -1.02608647375154
180   2.07932847540372 -1.04201233191866
181    1.9554734567316 -1.05790278676596
182   1.82985055475493 -1.07357881673746
183   1.70262192063426 -1.08887555257436
184   1.57393600175509 -1.10364195784461
185   1.44393010783227 -1.11774040221464
186   1.31273257381544 -1.13104618323384
187   1.18046458514087  -1.1434470405815
188   1.04724170795675 -1.15484269288534
189  0.913175127820127 -1.16514441742121
190  0.778372544353542 -1.17427468383246
191  0.642938686123668 -1.18216683740244
192  0.506975476827357 -1.18876481380399
193  0.370581990755301 -1.19402286206128
194  0.233854429486693 -1.19790526157517
195  0.0968863414416089 -1.20038604110583
196  -0.0402307739521659 -1.20144872920957
197  -0.177406487452842   -1.201086176925
198  -0.314550298708719 -1.19930048520143
199  -0.451570631094544 -1.19610304172048
200  -0.588374194798154 -1.19151464150069
201  -0.724865772906348 -1.18556565056241
202  -0.860948304674518 -1.17829617847851
203  -0.996523062691905 -1.16975624501296
204  -1.13148969955845 -1.16000594857074
205  -1.26574599756774 -1.14911565971973
206  -1.39918730014191 -1.13716626083221
207  -1.53170566543527 -1.12424944316187
208  -1.66318878025109 -1.11046806328809
209  -1.79351867848466 -1.09593654956715
210  -1.92257025355486 -1.08078134439645
211  -2.05020950170727 -1.06514136573616
212  -2.17629143338032 -1.04916846202479
213  -2.30065754973234 -1.03302782606556
214  -2.42313273509391 -1.01689832117735
215  -2.54352142477528 -1.00097264434203
216   -2.6616028825301 -0.985457212826398
217  -2.77712533046528 -0.970571614122611
218  -2.88979859302476 -0.956547385796691
219  -2.99928484889272 -0.943625777816666
220  -3.10518695927555 -0.932053986697044
221  -3.20703362027095 -0.922079115498272
222  -3.30426024477626 -0.913938762283767
223  -3.39618389894885 -0.907846603371041
224    -3.481969434676 -0.903970496595431
225  -3.56058091538081 -0.902399228832195
226  -3.63070110787193 -0.903091364724028
227  -3.69052983707705 -0.905792283596332
228  -3.73665845698653 -0.909839046462004
229  -3.76394088769834 -0.913901949488898
230  -3.77276147865625 -0.916159151484638
231  -3.77437158752682 -0.916677833643505
232  -3.77691583127346 -0.917574305025773
233  -3.77861375950987 -0.918228952723473
234  -3.78023177214758 -0.918895050257034
235  -3.78026464592018 -0.918908978449642
236  -3.79894978307982 -0.92974083049518
237  -3.82515229287413 -0.947679847442312
238  -3.83876267577225 -0.957727760572012
239  -3.84307691057322 -0.961029027984499
240  -3.84346595102359 -0.961329066326768
241  -3.84579879541135 -0.963135988664185
242  -3.86014407588593 -0.974432978234629
243  -3.89438746462572 -1.00121403033364
244  -3.95270296772535 -1.04481007362769
245  -4.04123754528571 -1.10161747124464
246  -4.29912520062799 -1.19139541768309
247  -5.04390290296493 -1.27974184197521
248  -5.52922173608163 -1.80119605605948
249   -6.1295650723686 -2.19874547738603
250  -6.85231505260737 -2.26690449410491
251  -7.50404847516677 -1.93957317564127
252  -8.03004477587666 -0.938792739284773
253  -7.84508546220799 0.174239274421093
254  -7.26350078322025  1.13299569540053
255  -6.47940958697082  1.92683931433431
256  -5.58636939648311  2.59249889365223
257   -4.6261228373143  3.15673099450582
258  -3.58317907789397  3.54651377855034
259    -2.463712714148  3.57404325734087
260  -1.34633132331396  3.49376364449767
