// Id               X                Y
  1  -0.244974497713756  4.35297783711711
  2  0.793361716993112  4.32474864282961
  3   1.84244526862566  4.21381211024385
  4   2.86881104466876  4.01163828709403
  5   3.79808188122612   3.6849814045851
  6   4.72998038918353  3.21228624813039
  7   5.66162767429912  2.75000111922858
  8   6.59919434979893  2.31957887509256
  9   7.45935203029924  1.86938723922943
 10   8.18713396572497  1.25349359642221
 11   8.54385732675634  0.27466245367559
 12   8.32137665925936 -0.222172097406107
 13   7.87227406317455 -0.504623487730241
 14   7.34544429509686 -0.488663925606717
 15   6.90635737012803 -0.212974606686004
 16   6.55686066104339 0.389925441976442
 17   6.46140376714304 0.587824305051479
 18   6.38399738603257 0.751856875189029
 19   6.31619710067589  0.89395055858203
 20   6.25441138875736  1.01997346023043
 21   6.20045282818818  1.12631106430667
 22     6.151319380298  1.21968943599817
 23    6.1036603752697  1.30701066840165
 24   6.05593781348705   1.3911255548686
 25   6.00704947844493  1.47399963164805
 26   5.95588234357369  1.55716427224946
 27    5.9012906830588  1.64213966989843
 28   5.84149570277977     1.73093810226
 29   5.77109552985814    1.830176822111
 30   5.68528982137916  1.94396638299192
 31   5.59007187374241  2.06189201068086
 32   5.48657024367925  2.18117867784297
 33   5.37530330501044  2.30024727613303
 34   5.25668996478821  2.41793418427557
 35   5.13115873765141  2.53331182950807
 36   4.99917294960547  2.64562751928673
 37   4.86122981577926  2.75427541993345
 38    4.7178503108527  2.85877890667692
 39   4.56956645398609  2.95877615090649
 40   4.41690898262286  3.05400672896353
 41   4.26039675361978  3.14429875456104
 42   4.10052835362646  3.22955660818308
 43   3.93777593053965  3.30974946487899
 44    3.7725810132914  3.38490078462913
 45   3.60535198285193  3.45507884637255
 46   3.43646283813374  3.52038832823107
 47   3.26625292852769  3.58096288002857
 48   3.09502737445904  3.63695860191835
 49   2.92305795253691  3.68854833029178
 50   2.75058427363865  3.73591663286318
 51    2.5778151266172  3.77925542314021
 52   2.40492989636666  3.81876011602005
 53   2.23207999357858  3.85462625812185
 54   2.05939025630074    3.887046577065
 55    1.8869603021644  3.91620840254789
 56    1.7148658264607  3.94229141869921
 57   1.54315985627262  3.96546571205301
 58    1.3718739851545  3.98589008311283
 59   1.20101962623424   4.0037105923541
 60   1.03058933313365  4.01905931418295
 61  0.860558246037922  4.03205327524604
 62  0.690885722321449  4.04279355683886
 63   0.52151720503146  4.05136454504855
 64   0.35238636665201  4.05783331651366
 65  0.183417540008843  4.06224915189791
 66  0.0145284154517826  4.06464317285695
 67  -0.154367051355735  4.06502810097952
 68  -0.323355606823104  4.06339813870096
 69  -0.492521646498979  4.05972897266971
 70  -0.66194424915884  4.05397789999416
 71  -0.831694391486498  4.04608407789082
 72  -1.00183240985756  4.03596889811732
 73  -1.17240574153799  4.02353648955582
 74  -1.34344694327352  4.00867435539894
 75  -1.51497195658579  3.99125415525879
 76  -1.68697856955114  3.97113264670016
 77  -1.85944501528879  3.94815280474701
 78  -2.03232864670949  3.92214514155046
 79  -2.20556463309174  3.89292925158283
 80  -2.37906463437852   3.8603156106118
 81  -2.55271542174599    3.824107659679
 82  -2.72637742672782   3.7841042088666
 83   -2.8998832155358  3.74010220037672
 84  -3.07303590052872   3.6918998769768
 85  -3.24560751807604  3.63930041069783
 86  -3.41733742295328   3.5821160580785
 87  -3.58793077593425  3.52017292200327
 88  -3.75705723560956  3.45331641522076
 89  -3.92435000952841  3.38141753462131
 90  -4.08940547423256  3.30438006426233
 91  -4.25178363685806  3.22214882297122
 92  -4.41100977661089  3.13471905148681
 93  -4.56657765973816  3.04214698669221
 94  -4.71795474430335  2.94456159208301
 95  -4.86458974645909  2.84217731025264
 96  -5.00592277757866  2.73530760486922
 97  -5.14139790843289  2.62437904645246
 98  -5.27047735445904  2.50994595662334
 99  -5.39265526039235  2.39270660920412
100  -5.50746662895028  2.27352490434812
101  -5.61448097886152  2.15347015840573
102  -5.71325090601121  2.03391823217486
103  -5.80309172126745   1.9169046329923
104  -5.88165905580221  1.80731986119261
105  -5.94475093522719  1.71390325804308
106  -6.00110045239628  1.62602442692404
107  -6.05337364815112  1.54047510150426
108  -6.10300921684914  1.45543139162702
109  -6.15120889127376  1.36911877501432
110  -6.19923580346658  1.27933613253937
111  -6.24882658118146  1.18262114909163
112  -6.30405627844104  1.07021114257549
113  -6.36481247732041 0.941340375414947
114  -6.43044817205378 0.797319079187619
115  -6.50467904209055 0.631425446974126
116  -6.59554932854734 0.431230116981026
117  -6.92618943078565 -0.182189527604537
118  -7.35124909402154 -0.476463104255305
119   -7.8745358355991 -0.522326923381611
120  -8.34005769425595 -0.270500756048693
121   -8.5945179699377 0.211052290422105
122  -8.29867299177235   1.1961392991074
123  -7.60432016620974  1.82912856755511
124  -6.78543125921231  2.28065128875642
125  -5.94369851229919  2.68035164287815
126  -5.11235179474297  3.09848545774573
127  -4.28449602656573  3.53228284263578
128  -3.37186270837597  3.91143939526698
129  -2.34745147200023  4.15864530736431
130  -1.29871690072257  4.27470394490752
131  -0.03759584977283  4.90333558434579
132   1.05194540805299  4.85586927636634
133   2.13344924455171  4.72681572517961
134   3.19700634945144  4.49993719189902
135   4.20952732745559  4.10695500898129
136   5.17570134868353  3.61795547279639
137   6.14115959647118  3.12853599946204
138   7.11601269353356   2.6504444582697
139    8.0403928339579  2.06824318161151
140      8.77633755513  1.25293182672171
141   8.96940333041753  0.17472659803194
142   8.76723236744756 -0.500081612367068
143   8.20237023337737 -0.921050445596279
144   7.49979337120079 -1.01188409486561
145   6.79571236227395 -0.933059138906262
146   6.39962658412733 -1.54842549162098
147   6.11693934223204 -1.72014645288177
148   5.87005669362309 -1.75525639305833
149   5.64547750806049 -1.73889731240678
150   5.43500514568947 -1.69646956950022
151    5.2304817786733  -1.6344083203699
152    5.0327577387944 -1.55517995029363
153   4.84447428082082 -1.46137174453342
154    4.6661767278588  -1.3552749517165
155   4.49796556587467 -1.23934911232026
156   4.33976890852153  -1.1161645891438
157    4.1915498346166 -0.988400587711088
158   4.05374373922093 -0.859267548746529
159   3.93044654510229 -0.736107174737279
160   3.82429231016524 -0.625761175545749
161   3.72627404900898 -0.522153750447721
162    3.6335799219242 -0.424420665835473
163   3.54452414194979 -0.332294213462656
164   3.45788234332951 -0.245568620707135
165   3.37270481757002 -0.164007477196831
166   3.28823079016722 -0.0873368764067505
167   3.20383827181713 -0.0152601898435997
168   3.11901162262537 0.0525237993426114
169   3.03331995861156  0.11630562839372
170   2.94640271374478  0.17635461545852
171   2.85795987644227 0.232913038816594
172   2.76774510235376 0.286194215894197
173   2.67556043526137  0.33638339555052
174   2.58125181524716 0.383640402155085
175   2.48470491389972 0.428103143505102
176   2.38584110052598 0.469891324836818
177   2.28461351320863 0.509109939728639
178   2.18100329813995 0.545852302162561
179   2.07501611072342 0.580202528155845
180   1.96667896426354 0.612237469684806
181   1.85603748535132 0.642028155927122
182   1.74315360278799 0.669640818522902
183   1.62810366710803 0.695137579943767
184   1.51097697397673 0.718576876404346
185   1.39187464738161  0.74001367544824
186   1.27090882639804  0.75949953712664
187     1.148202090673 0.777082558273197
188   1.02388705321004 0.792807232173538
189  0.898106043870654 0.806714250649566
190  0.771010803518188 0.818840271670557
191   0.64276210815971 0.829217672484645
192  0.513529246742147 0.837874305461355
193  0.383489287567678 0.844833271043558
194  0.252826088122187  0.85011271931301
195  0.121729031406334 0.853725688745598
196  -0.00960849375331799 0.855679987966483
197  -0.140990815286998 0.855978123939279
198  -0.27222181979698 0.854617278181504
199  -0.403106811433892 0.851589331264358
200   -0.5334542824823 0.846880934817677
201  -0.663077504148011 0.840473629202259
202  -0.791795873241202 0.832344003633743
203  -0.919435985208943 0.822463893681945
204  -1.04583243961221 0.810800608741977
205  -1.17082841512507 0.797317179428239
206  -1.29427607420436 0.781972612067191
207  -1.41603687194828  0.76472213467981
208  -1.53598185041918 0.745517416023934
209  -1.65399200089671 0.724306736195317
210  -1.76995877427574 0.701035083549368
211   -1.8837848156919 0.675644147710928
212  -1.99538499408354 0.648072171496286
213  -2.10468779037787 0.618253615078374
214   -2.2116370979672 0.586118573533539
215  -2.31619447413788 0.551591874913613
216  -2.41834185917877 0.514591772944987
217  -2.51808475015497 0.475028141862941
218  -2.61545578048615 0.432800089606047
219  -2.71051862051994 0.387792941705431
220  -2.80337209006602 0.339874625537208
221    -2.894154379596 0.288891615544017
222  -2.98304733596348 0.234664790635864
223  -3.07028090610797 0.176985799026477
224  -3.15613806892137 0.115614798478592
225  -3.24096093022694 0.0502806918240564
226  -3.32515910050565 -0.0193148727877187
227  -3.40922199867657 -0.093488546316647
228  -3.49373732882243 -0.172560686090164
229  -3.57941880818296 -0.256835749321354
230  -3.66714799889111 -0.34658124113209
231  -3.75804066872562 -0.442015977444179
232  -3.85356996653535 -0.543340890215973
233  -3.95589135143366 -0.650951390300432
234  -4.06960037791756 -0.76698865827998
235    -4.202249520569 -0.895042059859187
236  -4.34649377295945 -1.02375447950257
237  -4.50107036685082 -1.14883593178438
238  -4.66583844267452 -1.26733864230596
239  -4.84078510727958 -1.37658042663277
240  -5.02571516583722 -1.47403327767896
241  -5.21980136886307 -1.55731153264678
242   -5.4193870908708 -1.62359752536938
243  -5.62772592054968 -1.67162936513572
244  -5.85164289995011 -1.69431631192103
245  -6.09961490820423  -1.6661805305521
246  -6.38729482502335 -1.50248026147689
247  -6.80363899035649 -0.900615160573738
248  -7.50614274627477 -1.00277536596535
249  -8.21294207167699 -0.933870254501834
250  -8.79458067312675 -0.533673135023484
251  -9.01967909141981 0.134259588752244
252  -8.88432680476709  1.22119014017033
253  -8.16997404883322  2.05680357773853
254  -7.25762726621242  2.66624319423356
255  -6.28825843980489   3.1744901042357
256  -5.30910478027442  3.66257932075232
257  -4.31719437982911  4.12747899305701
258  -3.28435223889751  4.49529562639108
259  -2.21513292263716  4.73186957246972
260  -1.12749598100345  4.84052945390314
