// Id               X                Y
  1  -0.0847129841408124  0.51794041196339
  2  0.884526495340471 0.514156618775923
  3   1.80956461680596 0.547020166807108
  4   2.72071891281554 0.684897863704442
  5   3.60632353811178 0.915830074179591
  6   4.45986342905277  1.22534230362459
  7   5.28524867762379  1.58337737547027
  8   6.10021298791495  1.94381458286539
  9   6.92950150667874  2.24766649746408
 10   7.78817668155214  2.42298372200315
 11   8.66794840855167  2.38981637652189
 12   9.11644793473869  2.21150588703318
 13   9.49912111749463  1.88213687360377
 14   9.69006534400541  1.40294887161851
 15   9.56491153533372 0.921761260081113
 16   9.16437727870887  0.62974931358274
 17    9.0733936418156 0.590039895936055
 18   8.84572229471271 0.517877703745714
 19   8.58455287673519 0.465788601160387
 20   8.31534191992811 0.432313521753462
 21   8.04496192285677 0.409522483159925
 22   7.77697499623401 0.391035821828662
 23   7.51341664869189 0.372639510815194
 24   7.25563854767086 0.352016500128236
 25   7.00507616823267 0.328419700442099
 26   6.76399577404543 0.302445320299943
 27   6.53712263140299 0.275879922658579
 28   6.35935301613292 0.254517938880318
 29   6.18875184309489 0.234231013531262
 30   6.01976591885815 0.214926317699442
 31   5.85056277353802 0.196872257809987
 32   5.68038989611377 0.180378868881119
 33   5.50905536960411 0.165721987020731
 34   5.33670322962085 0.153107289887904
 35   5.16365906325843 0.142652915116488
 36   4.99030584848312 0.134387097019861
 37   4.81699717802006 0.128258288915978
 38   4.64401425488443 0.124152705922348
 39   4.47155731003741 0.121913514651057
 40   4.29975518115663  0.12135780066071
 41   4.12868049510097 0.122289869773952
 42   3.95836415417392 0.124510955648401
 43   3.78880707061187 0.127825979225733
 44   3.61998904119096  0.13204807179672
 45   3.45187528042589 0.137001460415434
 46   3.28442120345631 0.142523172829276
 47   3.11757594913768 0.148463898154826
 48   2.95128500823121 0.154688247611693
 49   2.78549221590703 0.161074592661132
 50   2.62014128905682 0.167514609713446
 51   2.45517703290563 0.173912625888799
 52   2.29054630205395 0.180184835234351
 53     2.126198773263 0.186258436571299
 54    1.9620875673419 0.192070730864886
 55   1.79816974295629 0.197568206351729
 56   1.63440667451072 0.202705632681112
 57   1.47076431854134 0.207445180347173
 58   1.30721336777687 0.211755578196867
 59   1.14372928891953 0.215611319400608
 60  0.980292239121288 0.218991924656183
 61  0.816886856977861 0.221881270307778
 62  0.653501926478567 0.224266988292268
 63  0.490129916479936 0.226139944204695
 64    0.3267664035248 0.227493799171662
 65  0.163409391677433 0.228324660539328
 66  5.85488549836739e-05 0.228630825563671
 67  -0.163285615768852 0.228412621312743
 68  -0.326622604953528 0.227672342865576
 69  -0.489952786895016  0.22641429065931
 70  -0.653278218878658 0.224644906553231
 71  -0.816603413070359 0.222373006911775
 72  -0.979936020336204 0.219610109820916
 73  -1.14328741312777 0.216370852491046
 74  -1.30667315423289 0.212673493986857
 75  -1.47011334390816 0.208540497650749
 76  -1.63363284297402 0.203999186903404
 77   -1.7972613733744 0.199082467426834
 78   -1.9610335001284 0.193829607934934
 79   -2.1249884993113 0.188287070647577
 80  -2.28917011556811 0.182509380997335
 81  -2.45362620959649 0.176560023754528
 82   -2.6184082909097  0.17051234933626
 83  -2.78357092375434 0.164450469163701
 84  -2.94917098381502 0.158470112024358
 85  -3.11526672941083 0.152679403781469
 86  -3.28191663179289 0.147199519489664
 87   -3.4491778825569 0.142165138675277
 88  -3.61710445858657 0.137724609297858
 89  -3.78574457150099 0.134039690973303
 90  -3.95513725352702 0.131284699525816
 91   -4.1253077309125 0.129644807652908
 92  -4.29626111547431  0.12931316444728
 93  -4.46797384489783 0.130486375878776
 94  -4.64038235616661  0.13335774728869
 95  -4.81336902804364 0.138107574379429
 96     -4.98674718302 0.144889823530119
 97  -5.16025085743382 0.153815077871903
 98  -5.33354115458251 0.164931077607207
 99  -5.50624567623761 0.178204608476283
100  -5.67804353610074  0.19351067912757
101  -5.84879598710033 0.210634840756378
102  -6.01872298831542 0.229292504389673
103  -6.18867917112598 0.249170728086519
104  -6.36083843251837 0.270023105758664
105  -6.54354371222857 0.292251177387893
106  -6.77424227418357  0.31933042770639
107  -7.01740538388864 0.345191989065325
108  -7.26947950553929 0.368115409776954
109  -7.52851000448607 0.387493095884159
110  -7.79319133892263 0.404056223171594
111  -8.06226926894785 0.420116435851637
112  -8.33383588089677 0.439906209685028
113   -8.6045168562503 0.469878992499394
114  -8.86773286164834 0.518184541002235
115  -9.09980516750855 0.587578921513726
116  -9.19207584560629 0.626102585700379
117  -9.59910447252175 0.912852814746807
118  -9.73109281758919  1.39373687912257
119   -9.5437387679534  1.87680297830905
120  -9.16155818138273  2.20900049126483
121  -8.71195688302573  2.38804492588527
122  -7.83055414895644  2.41660249402951
123  -6.97282256595071  2.22905343882286
124  -6.14822031165173  1.90513894368673
125  -5.33853020623139  1.52955554635649
126  -4.51797513199815  1.15978348996784
127  -3.66890737254767 0.843439505699352
128  -2.78892024276082 0.613545474399471
129  -1.88868909776669 0.484976113060666
130  -0.984792471502596 0.454053548497118
131  0.0279529467748489  1.07253030611878
132  0.911443099660929  1.10022374296392
133   1.79214195243005   1.1670457279792
134   2.66582809345835  1.30587243150038
135   3.52556128084369  1.53339118667615
136   4.36798526512023  1.84118233002986
137   5.20252981273858  2.20042266420894
138   6.05547890794087  2.56418219594795
139   6.98462259370083  2.86618399668627
140   8.04932476828107  2.97490791438904
141   9.08562074594765  2.68826371377973
142   9.62617271581281  2.26168385053214
143   9.99400689411473  1.69681797996912
144   10.1740909522307  1.06897113917724
145   10.2009075641965 0.496572919048663
146   10.0924267480646 -0.220123741952724
147   8.85627897871681 -2.08053171865956
148   8.56101009033244 -2.27420989607277
149   8.39148740724307 -2.36677838354722
150    8.2657966639849 -2.42794397013772
151   8.15800574688209 -2.47583819231147
152    8.0547418512332 -2.51809649430611
153   7.94934288272588 -2.55784993331037
154   7.83879648832808 -2.59615383162429
155     7.721012857041 -2.63343913866227
156   7.59307971640067 -2.67014782231001
157   7.44988390082944 -2.70696203138935
158   7.25816386063121 -2.74987201954116
159   7.05934439090404 -2.78761744478101
160   6.85943132965773 -2.81954134154033
161   6.66057406674785 -2.84608619199665
162   6.46364220155989 -2.86792271324075
163   6.26879897221334 -2.88573473746546
164   6.07579720242195 -2.90013936018965
165   5.88419075612156 -2.91166152272776
166   5.69349279669439 -2.92073487436128
167   5.50327643575148 -2.92771492934295
168   5.31321851881133 -2.93289582938184
169   5.12310275265532 -2.93652557453105
170   4.93280292681295 -2.93881771467883
171   4.74226098618646 -2.93995952304211
172   4.55146703314639 -2.94011746471311
173   4.36044341791135 -2.93944082937525
174    4.1692328713426 -2.93806419765292
175   3.97788993867205 -2.93610919152636
176   3.78647490429826 -2.93368579161665
177   3.59504952707429 -2.93089339167419
178   3.40367406535008 -2.92782168974456
179   3.21240520947623 -2.92455147248428
180   3.02129464715284 -2.92115532378083
181   2.83038806755837 -2.91769827441336
182   2.63972446975696 -2.91423840163257
183   2.44933568489376  -2.9108273835147
184   2.25924605424949 -2.90751101106535
185   2.06947222923589 -2.90432966027968
186   1.88002307686227 -2.90131872608959
187   1.69089968644603 -2.89850901999653
188   1.50209548130405 -2.89592713301983
189   1.31359644351431 -2.89359576531492
190    1.1253814610872 -2.89153402342998
191  0.937422805485431 -2.88975768571126
192  0.749686743829701 -2.88827943589637
193  0.562134284826028  -2.8871090645143
194  0.374722051028482 -2.88625363740175
195  0.187403263164458 -2.88571763048889
196  0.000128815605670237 -2.88550303002587
197  -0.187151583630765 -2.88560939760754
198  -0.374488239100378 -2.88603389967609
199  -0.561930293227094 -2.88677130158558
200  -0.749524583390707 -2.88781392672921
201  -0.937314561154507 -2.88915158158996
202  -1.12533929968442 -2.89077144781178
203  -1.31363260968144 -2.89265794245787
204  -1.50222227762298 -2.89479254750087
205  -1.69112943347509 -2.89715360928326
206  -1.88036804896961 -2.89971610822325
207  -2.06994456264413 -2.90245139847385
208  -2.25985762464239 -2.90532691663107
209  -2.45009795321787 -2.90830585799848
210  -2.64064829638224 -2.91134681840533
211  -2.83148349661365 -2.91440339917812
212  -3.02257066448144 -2.91742377257425
213  -3.21386947910803 -2.92035020472608
214  -3.40533265049848 -2.92311853273348
215  -3.59690660224847 -2.92565759163704
216  -3.78853246492616  -2.9278885849974
217  -3.98014751326832 -2.92972438868932
218   -4.1716872380856 -2.93106876965217
219  -4.36308832143074 -2.93181548708713
220   -4.5542928866486 -2.93184721879567
221  -4.74525452640279 -2.93103421356021
222   -4.9359467625275 -2.92923250210196
223  -5.12637471366052 -2.92628139141099
224  -5.31659068816447 -2.92199980768026
225  -5.50671379181931 -2.91618084516445
226  -5.69695163471283 -2.90858368649775
227  -5.88761767453326 -2.89892210074412
228  -6.07913030949672 -2.88684945192085
229  -6.27197293291053 -2.87194210220128
230  -6.46659548577648 -2.85368636605033
231  -6.66324916477919 -2.83147848858805
232  -6.86174884353962 -2.80465413811716
233  -7.06111759907291 -2.77258186302672
234   -7.2588447131111 -2.73492596420655
235  -7.44618465932106 -2.69307055415821
236  -7.58565166392876 -2.65746296482302
237  -7.71165304275253 -2.62168229968751
238  -7.82824499139411 -2.58524042050684
239  -7.93802205278843 -2.54773380044952
240  -8.04292458959847 -2.50877891020396
241  -8.14581472894995 -2.46735165009854
242    -8.253229399569 -2.42044985307318
243  -8.37852318312956  -2.3605880896386
244  -8.54794093226249 -2.26987876902371
245  -8.84390473025825 -2.07987485217176
246  -10.1105002697802 -0.234961455734996
247  -10.2299170907125 0.479992389707362
248  -10.2107850582459  1.05786184585569
249  -10.0368310367285  1.68902654384904
250   -9.6718915115378   2.2574231046025
251  -9.13139541173254  2.68559734817879
252  -8.09224478951269  2.96832891433987
253  -7.02594149570172  2.84827830218492
254  -6.07413033343413  2.52165757800739
255  -5.22169530491774  2.14086622646107
256  -4.38595760703297  1.76802450437918
257  -3.53807973732191  1.45202134377197
258  -2.66759226605655  1.22433860037634
259  -1.77733638231031  1.09675160433769
260  -0.874761496481084   1.0575395459249
