// Id               X                Y
  1  -0.0889896771098161  1.56566386008139
  2   0.96520105800455  1.54289176338696
  3   2.01330689996687  1.51878325266552
  4   3.04517530803554  1.54423286728308
  5     4.036345987414  1.58662186017148
  6   5.00012221355967  1.61682044593503
  7   5.94663695944495  1.59407570836998
  8   6.86731335333841  1.45756640762171
  9   7.72165835305219  1.13282891998722
 10   8.41908587135979 0.572588724752393
 11   8.88181050017249 -0.19500162601351
 12   8.97297121600065 -0.68743385092972
 13   8.88879356031132 -1.23171184154627
 14   8.45323000721512 -1.74414764748208
 15   7.80563772057469 -1.71038076244183
 16   7.56925281547689 -0.921414843133694
 17   7.47312970602515 -0.644144937447768
 18   7.35538277412953 -0.415380231784098
 19   7.22234933514484 -0.232458909966347
 20   7.09693350873656 -0.100853794412522
 21   6.96647994604564 0.00882365165132803
 22   6.83022180462888  0.10202846040854
 23   6.68909680977401 0.181121088064605
 24    6.5440330091152 0.248028858943682
 25   6.39585713148096 0.304553409668869
 26   6.24532757520887 0.352430047942257
 27   6.09312846739156 0.393329811884248
 28   5.93983738755297 0.428827401508736
 29   5.78589999377351 0.460353821079031
 30   5.63162837912215 0.489154513875274
 31   5.47722059482744  0.51626572675608
 32   5.32278975515449 0.542511171304001
 33   5.16839221780905 0.568514379266228
 34   5.01404941981565  0.59472040214317
 35   4.85976237510451 0.621421555072838
 36   4.70552017478406 0.648783690305532
 37   4.55130447725547 0.676870998085748
 38   4.39709173813785 0.705668345571581
 39   4.24285440528915 0.735100766353809
 40    4.0885617957645 0.765050050642221
 41    3.9341809932081 0.795368567971452
 42   3.77967786615161 0.825890548848836
 43   3.62501818030386 0.856441095482975
 44    3.4701687268082 0.886843206213154
 45   3.31509838249775  0.91692309383899
 46   3.15977903280013  0.94651406407346
 47   3.00418631329786 0.975459198777783
 48   2.84830014917638  1.00361306550226
 49    2.6921050926109  1.03084264913193
 50   2.53559047292754  1.05702767741218
 51   2.37875038464463   1.0820604873713
 52   2.22158354251371  1.10584555842677
 53   2.06409303579408  1.12829881593029
 54   1.90628601069874  1.14934679170712
 55   1.74817330884217  1.16892570953015
 56   1.58976908366387  1.18698055042862
 57   1.43109041374594  1.20346413763725
 58   1.27215692590735   1.2183362720936
 59   1.11299043843907  1.23156293750061
 60  0.953614629176318   1.2431155891052
 61  0.794054732201484  1.25297053127319
 62  0.634337262347597  1.26110838768734
 63  0.474489766796651  1.26751366134509
 64  0.314540600011953  1.27217438325321
 65  0.154518718744976  1.27508184394384
 66  -0.00554650795455075  1.27623040589319
 67  -0.165625478151807  1.27561739139292
 68  -0.325688531320089  1.27324304578391
 69  -0.485706122506945  1.26911057304026
 70  -0.645649001646043   1.2632262465603
 71  -0.805488403270901  1.25559959509321
 72  -0.965196251394284  1.24624366919827
 73  -1.12474538455404  1.23517539008378
 74  -1.28410980469732  1.22241598683391
 75  -1.44326495373192  1.20799152323055
 76  -1.60218801895652  1.19193351737527
 77  -1.76085826843162  1.17427965062571
 78  -1.91925741309737  1.15507456142301
 79  -2.07736999134274   1.1343707104525
 80   -2.2351837662875  1.11222929902964
 81   -2.3926901233678  1.08872121060645
 82  -2.54988444984337  1.06392793666219
 83  -2.70676647460433  1.03794243297502
 84  -2.86334054069042  1.01086983938728
 85  -3.01961578152163 0.982827977286294
 86  -3.17560616822028 0.953947521808754
 87  -3.33133039806548  0.92437172330501
 88  -3.48681159756728 0.894255531120244
 89  -3.64207682332029 0.863763947316273
 90  -3.79715635784288 0.833069413379261
 91  -3.95208281775792 0.802348006264604
 92  -4.10689011425543 0.771774196072798
 93  -4.26161233073955 0.741513894771971
 94  -4.41628259714614 0.711715510092163
 95  -4.57093203503289 0.682498712637921
 96  -4.72558879760526  0.65394063713828
 97  -4.88027710324762 0.626059280681068
 98  -5.03501592483428 0.598793953823527
 99  -5.18981661918789 0.571982820885048
100  -5.34467826961568 0.545337902557123
101  -5.49957898104621 0.518418516357709
102  -5.65446111612656 0.490605147058292
103  -5.80920909710825 0.461077262803392
104  -5.96362075564227 0.428800401258411
105   -6.1173777385646  0.39252893122367
106  -6.27002575984558 0.350829147709318
107  -6.42097676086508 0.302120573174919
108  -6.56953598079414 0.244722341007038
109  -6.71493718402287 0.176882920306892
110  -6.85635259311971 0.0967724130859786
111   -6.9928657605794 0.00240944680329557
112  -7.12358367093408 -0.108692353347953
113  -7.24962201148825 -0.242625205930945
114  -7.38208725871393 -0.427584655335614
115  -7.49823151211471 -0.657592537792507
116  -7.59220826378206 -0.935783917589704
117  -7.82213112462711 -1.72696576531362
118  -8.47106526690435 -1.76687637232392
119  -8.91110013578276 -1.25807579253267
120  -8.99860433967554 -0.714220668102334
121  -8.90889882352841 -0.221665342533193
122  -8.44460249492527 0.544971056536521
123  -7.74302339012595  1.10002983787612
124  -6.88495121169492  1.41591829689188
125  -5.96181301886023  1.54239456250457
126  -5.01303542899413  1.55648234424261
127  -4.04520318375611   1.5213387529972
128  -3.04300791764359  1.47951534104848
129  -2.03386027790158  1.45963884033358
130   -1.0651176272119  1.48789108037564
131  0.141114297252182  2.09744777082239
132   1.11762931879401  2.11331746488622
133   2.07716409983558  2.13278354459862
134   3.05266511510794  2.16394380658586
135   4.08649458350266  2.20347866113353
136    5.1414171416113  2.21918750958969
137   6.21115387987884  2.15374882998584
138   7.27373229394889  1.92581730875502
139   8.26218042873029  1.44137321145394
140   9.02948217616603 0.631529118040412
141   9.33390807035512 -0.444046816730635
142   9.20330000203215 -1.14863755232246
143   8.83796527009097 -1.75951937526433
144   8.31011376324654 -2.22553667546806
145   7.73356117777307 -2.53879645783098
146   6.99815255759605 -2.80069636113205
147   6.83829020716579 -2.83244907898813
148   6.68951315138824 -2.85415108949462
149   6.54518971928692 -2.86839784212816
150   6.40101179374659 -2.87644683596071
151   6.25769809813139 -2.87881975900548
152    6.1153450351027 -2.87608442111863
153   5.97390371143513 -2.86877620221737
154   5.83325488391864 -2.85739277126897
155    5.6932463502806 -2.84239571913105
156    5.5537334024147 -2.82421579778756
157   5.41460215286281 -2.80325709773455
158   5.27577331988695 -2.77989968429449
159   5.13719475395084 -2.75449822121438
160    4.9988305871866 -2.72738091265005
161   4.86065242103185  -2.6988471265369
162   4.72263349955113  -2.6691680937459
163   4.58474634201544 -2.63858690472198
164   4.44696196323403 -2.60732179206306
165   4.30925072740923 -2.57556753776636
166   4.17158297586702 -2.54349980596891
167   4.03393032836041 -2.51127634468954
168   3.89626599028643 -2.47904132383195
169   3.75856569809138 -2.44692550693545
170   3.62080742026764  -2.4150504084364
171   3.48297203614424 -2.38352717979327
172   3.34504258351569 -2.35246085839595
173   3.20700492653321 -2.32194787291254
174   3.06884670016799 -2.29208082274456
175   2.93055816386063 -2.26294445709821
176   2.79213089829618 -2.23462148448694
177   2.65355896172451 -2.20718676300066
178   2.51483732787897 -2.18071468270808
179   2.37596340280694 -2.15527118406832
180   2.23693516999418  -2.1309232981145
181   2.09775308388742 -2.10772851484903
182   1.95841789702189 -2.08574709068984
183   1.81893290951726 -2.06502823987022
184   1.67930148649893 -2.04562580111034
185   1.53952959813375 -2.02758074298932
186   1.39962308947727 -2.01094069780647
187   1.25959039246523 -1.99573837553426
188   1.11943967282952 -1.98201530455883
189   0.97918154362007 -1.96979594761004
190  0.838826270792359 -1.95911573346597
191  0.698386277888132 -1.94999095388006
192  0.557873631255468 -1.94245084446169
193  0.417302107781294 -1.93650368516085
194  0.276685190716747 -1.93217232943943
195  0.136037486812927 -1.92945728553722
196  -0.00462656392910612 -1.92837475263937
197  -0.145292084664411 -1.92891776914191
198  -0.285944198898838 -1.93109554930509
199  -0.426568322334814 -1.93489399356321
200  -0.567149697933723 -1.94031497675578
201  -0.70767456778317 -1.94733758530873
202  -0.848128855905554 -1.95595601513034
203  -0.988500109457968 -1.96614281783676
204   -1.1287754681278 -1.97788422127376
205  -1.26894418912832 -1.99114644737671
206  -1.40899510495984 -2.00590754169031
207  -1.54891950558373 -2.02212750923583
208  -1.68870831424437 -2.03977608164351
209   -1.8283550973909 -2.05880705913513
210  -1.96785318158755 -2.07918179730376
211  -2.10719859229382 -2.10084779841315
212  -2.24638730131652 -2.12375801212815
213   -2.3854179487444 -2.14785343190657
214  -2.52428936042969 -2.17307853826769
215  -2.66300297008277 -2.19936745132088
216  -2.80156069156585 -2.22665598518157
217  -2.93996701556056 -2.25487078985121
218  -3.07822727219789 -2.28393853432101
219  -3.21634941634312 -2.31377742709487
220    -3.354342673463 -2.34430401903555
221  -3.49221904254201 -2.37542649900074
222   -3.6299922724829 -2.40704952583375
223  -3.76767909370492 -2.43906872835958
224  -3.90529841149422 -2.47137386107928
225  -4.04287221514013 -2.50384397809447
226  -4.18042479365267 -2.53634908922655
227  -4.31798318006128 -2.56874553811392
228  -4.45557613417417 -2.60087627896777
229  -4.59323397486713 -2.63256615508473
230  -4.73098723511325 -2.66362106645163
231  -4.86886616077255 -2.69382330198632
232  -5.00689981875185 -2.72293042743233
233   -5.1451169599494  -2.7506716922685
234  -5.28354831042893 -2.77674826865511
235   -5.4222323974746 -2.80083228428445
236  -5.56122422698209 -2.82256943493327
237  -5.70060609001895 -2.84157989296978
238  -5.84049498711033  -2.8574599746738
239  -5.98103896916594 -2.86977943697513
240  -6.12239386640352 -2.87807742933619
241  -6.26468229696328 -2.88185699665643
242  -6.40795305931734 -2.88058357849538
243   -6.5520774523554  -2.8736924200704
244  -6.69646774980703 -2.86064857817735
245  -6.84542974935042 -2.84022331546118
246  -7.00557918759227 -2.80988210413114
247  -7.74350283128374 -2.55499049862208
248  -8.32437257341639 -2.24677532354202
249  -8.85682842173038 -1.78504510524203
250  -9.22668981933486 -1.17610354376024
251  -9.36012364466914 -0.471251631370897
252  -9.05477692741969 0.604866187708659
253  -8.28207243181715  1.41107940478131
254   -7.2877609911636  1.88721408902623
255  -6.22038757054409  2.10472992458566
256  -5.14575186278939  2.16058529765326
257  -4.08256442542667  2.13863818372051
258  -3.02994685831129  2.09870348132309
259  -1.97990324739561  2.07576398948236
260  -0.920788940484919  2.07928090359656
