// Id               X                Y
  1  -0.385684644094639  7.85502522784502
  2  0.678812592734514   7.8139855503281
  3   1.72068263200074  7.61087230065087
  4   2.73623561630906  7.25758042409794
  5   3.68752353379792  6.73815113873337
  6   4.55920820405124  6.11273161771848
  7   5.38008506017615  5.43810808911386
  8   6.20205236610711  4.76905534703991
  9   7.00323338482124  4.08768450646092
 10   7.70460605937658  3.30425960611905
 11    8.0595504576508  2.27797386401611
 12   7.78489454839181   1.6730879159122
 13   7.29039925247199  1.43075918138522
 14   6.77926572414624   1.5480376348998
 15   6.44032790067991  1.93621074252402
 16   6.34580941146478  2.69629569520512
 17   6.30167101177162  2.99977599979821
 18   6.26640868400082  3.17410577230928
 19    6.2318239536465   3.3136915985051
 20   6.19286277583097   3.4476408540188
 21   6.14921107435617  3.57813564884425
 22   6.10080630802413  3.70559274947296
 23   6.04770786178208  3.83066705335701
 24   5.98970375797447  3.95399621419147
 25   5.92682630273335  4.07616967716232
 26   5.85897409553562  4.19748482271904
 27   5.78627612961777  4.31816358712451
 28   5.70879144490692  4.43825022970105
 29   5.62669160554182  4.55777247566899
 30   5.54010891220912  4.67668851812477
 31   5.44920340301806  4.79495810903014
 32   5.35410766397768  4.91252020325492
 33   5.25494570246783   5.0293151054453
 34   5.15181821684063  5.14527635127453
 35   5.04480771541821  5.26033515059724
 36   4.93397650555501   5.3744172394467
 37   4.81936913929276  5.48744267648122
 38   4.70101366208248  5.59932422390084
 39   4.57892368933875  5.70996642101725
 40    4.4531003231839   5.8192645146776
 41   4.32353420819264   5.9271035819156
 42   4.19020759351885  6.03335769448771
 43   4.05309648023548  6.13788914928405
 44   3.91217289377879   6.2405477272818
 45    3.7674073568432  6.34116998058053
 46   3.61877163952472   6.4395785558474
 47   3.46624186363576  6.53558158907142
 48   3.30980201624216   6.6289722386094
 49   3.14944787796697  6.71952846557814
 50   2.98519128544389  6.80701321635494
 51   2.81706452598859  6.89117519954732
 52   2.64512452656883  6.97175045833797
 53   2.46945639423764  7.04846489442426
 54   2.29017585150274  7.12103778829412
 55   2.10743022964373  7.18918619694162
 56   1.92139792115537  7.25262994280965
 57     1.732286469075  7.31109679970866
 58   1.54032968062065  7.36432747365333
 59   1.34578422793115  7.41208006314572
 60    1.1489261434461  7.45413381965016
 61  0.950047487739377  7.49029216200557
 62   0.74945332802027  7.52038499413651
 63  0.547459057347405  7.54427042516581
 64   0.34438801998383  7.56183600370737
 65  0.140569380395728  7.57299956809199
 66  -0.063663831288791  7.57770979385915
 67  -0.267976558354803   7.5759464967339
 68  -0.472033493629944  7.56772072703807
 69  -0.675500839380459  7.55307467081727
 70  -0.878048096836632  7.53208135316833
 71  -1.07934993572686  7.50484411904344
 72  -1.27908820274595  7.47149584510093
 73  -1.47695413682212  7.43219781290986
 74  -1.67265086141007  7.38713815111712
 75  -1.86589620875881  7.33652973780346
 76  -2.05642588413526  7.28060745467794
 77   -2.2439968876661  7.21962471630712
 78  -2.42839097953883  7.15384927310042
 79  -2.60941782907637  7.08355840701899
 80  -2.78691738796204  7.00903378100696
 81  -2.96076104017648  6.93055631913082
 82  -3.13085123895517  6.84840153083198
 83  -3.29711960626539  6.76283562351079
 84  -3.45952374409503  6.67411259560868
 85  -3.61804318751404  6.58247232694008
 86  -3.77267497088512  6.48813954405963
 87  -3.92342920307626  6.39132346598973
 88  -4.07032491433586  6.29221792576309
 89  -4.21338630277495  6.19100179332572
 90  -4.35263940421877   6.0878395713972
 91  -4.48810914380146  5.98288208162878
 92  -4.61981669554346  5.87626719627888
 93  -4.74777706732475  5.76812059905074
 94  -4.87199683414606  5.65855657918421
 95  -4.99247195687065  5.54767887720066
 96  -5.10918564626299  5.43558160849703
 97  -5.22210626500616  5.32235029023269
 98  -5.33118530369394  5.20806298717681
 99  -5.43635552716241  5.09279156626718
100  -5.53752948588101  4.97660297995994
101  -5.63459873048423  4.85956035912419
102  -5.72743423934466  4.74172347445004
103  -5.81588878600911   4.6231477470186
104  -5.89980222203204  4.50388035899297
105  -5.97901076242307  4.38395118738981
106  -6.05336113726448  4.26335536638586
107  -6.12272959844946  4.14202367026977
108  -6.18704351530852  4.01977821612162
109  -6.24629880228245   3.8962779472129
110  -6.30055900690913  3.77097891238146
111  -6.34991418030832  3.64317762795134
112  -6.39439367743323  3.51222533410671
113  -6.43394838407363  3.37765386267224
114  -6.46890475349977   3.2373114505015
115  -6.50438687859934  3.06080114473078
116  -6.54709408791484  2.75713524998223
117  -6.62958078847983   1.9960442913476
118  -6.94664194248844  1.59655341445789
119  -7.44149270746925   1.4459623893224
120  -7.94253526434127   1.6409938920865
121  -8.26150078473966  2.22280685002405
122  -7.94627542418902   3.2577247453378
123  -7.27827180685067  4.02712003163877
124  -6.55598298871534  4.64817012349987
125  -5.82345579788324  5.24916119884825
126  -5.09264320857837  5.86181793175739
127  -4.30404697376181  6.48029769324937
128  -3.40514190618828  7.04271270853093
129   -2.4374699675134  7.45371186159281
130  -1.42027988306193   7.6993260181164
131  -0.0466382075579714  8.33441040108911
132   1.07355444549718  8.25762106705259
133   2.16610270973749  8.00121536855716
134   3.21276611075658  7.59857948860362
135   4.18592585993775  7.04608651744192
136   5.08397097144844  6.38211293917696
137   5.94308379178041  5.67008957927628
138   6.78984336241592  4.94206454927007
139   7.60697576876285   4.1763316785154
140   8.28834666347517  3.28595916953784
141   8.42460290357077   2.1771841302425
142   8.25362583383659  1.48161813236348
143   7.66185835640438  1.07003607826599
144   6.93628123935834  1.02221506455785
145   6.23066711433405  1.18946172154932
146   5.80330206985361 0.538379049299872
147   5.65483316958756 0.436132161256362
148   5.49254644979701 0.472199662773816
149   5.34525813005149 0.549343298860807
150   5.20809136793022 0.641703627247222
151    5.0798296927873 0.744718347828723
152   4.96048764147237 0.857079805341189
153     4.849270576852  0.97680088883568
154   4.74455714618743  1.10145015468403
155   4.64452025287504  1.22886451694948
156   4.54753226754954  1.35739595883928
157   4.45229788758557   1.4858750454461
158   4.35784676777692  1.61350122008454
159   4.26347989371293  1.73973866288038
160   4.16870800748384  1.86423602604704
161   4.07319717326642  1.98676786423728
162   3.97672455208817  2.10719297033041
163   3.87914449147789  2.22542476850194
164    3.7803633573472  2.34141045832487
165   3.68032149881212  2.45511641271985
166   3.57898065067444  2.56651808404113
167    3.4763153992919  2.67559313099616
168   3.37230759908699  2.78231684255733
169   3.26694287548388  2.88665916869272
170   3.16020856576507  2.98858285740383
171    3.0520926366986  3.08804234063687
172   2.94258325213604  3.18498311652847
173   2.83166876144056  3.27934145183641
174   2.71933795215946  3.37104428599735
175   2.60558046262346  3.46000926102682
176   2.49038728690283  3.54614483362469
177   2.37375133195919  3.62935045177593
178    2.2556680096699  3.70951680143861
179    2.1361358675643  3.78652615185504
180   2.01515728223834   3.8602528508794
181   1.89273925567042  3.93056404144422
182   1.76889435995449  3.99732067956092
183   1.64364186082324  4.06037892282871
184    1.5170090089283  4.11959191860734
185   1.38903242615819  4.17481195588154
186   1.25975945332598  4.22589287302088
187   1.12924929284009  4.27269256299091
188  0.997573792289566  4.31507540897828
189  0.864817766711749  4.35291451702859
190  0.731078825463018   4.3860936687486
191  0.596466729130839   4.4145089715373
192  0.461102339073349  4.43807022001658
193  0.325116236526103  4.45670199731926
194  0.188647086974486  4.47034454453021
195  0.0518398169571573  4.47895441905455
196  -0.0851563394582792  4.48250495424967
197  -0.222189875623632  4.48098652645325
198  -0.359109085573205  4.47440663225799
199  -0.495764135731333  4.46278977783154
200  -0.632009096067796  4.44617718198094
201  -0.767703890245579  4.42462629407523
202  -0.902716120332015  4.39821012549204
203  -1.03692271498506  4.36701638793194
204  -1.17021134109589  4.33114642373542
205  -1.30248150963499  4.29071390422749
206  -1.43364530152582  4.24584326706154
207  -1.56362764629959  4.19666787028163
208  -1.69236611342815  4.14332786704111
209  -1.81981022725449  4.08596785224589
210  -1.94592038342207  4.02473439030934
211   -2.0706665061177  3.95977357912042
212  -2.19402661498178  3.89122881529731
213   -2.3159854538137  3.81923889063693
214  -2.43653327878077  3.74393648281274
215  -2.55566483765912  3.66544703234416
216  -2.67337851967784  3.58388794685227
217  -2.78967563023173  3.49936805202355
218   -2.9045597438891  3.41198721205292
219  -3.01803610345834  3.32183606032614
220  -3.13011105369724  3.22899580478012
221  -3.24079152102021  3.13353809709642
222  -3.35008457495793  3.03552497998602
223  -3.45799713579599  2.93500895429233
224  -3.56453593038382  2.83203324098914
225   -3.6697078504503  2.72663235675894
226  -3.77352094115803  2.61883318044289
227  -3.87598634909445  2.50865676665022
228  -3.97712169811131  2.39612126963457
229  -4.07695654659406  2.28124648395565
230  -4.17554080766669  2.16406069625103
231  -4.27295727642208  2.04461078926365
232   -4.3693396965955  1.92297687864746
233  -4.46489805179764  1.79929323880691
234  -4.55995284841772  1.67377794656005
235  -4.65497986997852   1.5467746362851
236  -4.75066565776551  1.41881096332979
237  -4.84797023250328  1.29067901866534
238  -4.94818347293332  1.16353974954558
239  -5.05293632872877  1.03903537680012
240  -5.16407643929882 0.919332819100737
241  -5.28326942178566 0.806890812470082
242  -5.41136719685545 0.703746785617167
243  -5.54837521189879 0.611216160690681
244  -5.69545517357348 0.533698027589144
245  -5.85742396409757  0.49648314456187
246  -6.00656722860762 0.597553453564195
247  -6.43940000854762  1.24431457574129
248  -7.14861697150127  1.07438480565235
249  -7.87713088129487  1.15029669448379
250   -8.4520987603747   1.5965776667965
251  -8.62540745593579   2.2950478012892
252  -8.50758113936406  3.40688440593971
253  -7.80773302210401  4.28112955615646
254   -6.9892471233051  5.04816599162762
255  -6.12232118508711    5.760291335521
256  -5.23577097149301  6.44891778595274
257  -4.31028718179954   7.0864307242634
258  -3.32538481467379  7.63024026109639
259  -2.26985866749631  8.02039604344214
260   -1.1644082388554  8.23066778145026
