// Id               X                Y
  1  -0.722161629411119  9.32498522911654
  2   0.36345343501831  9.33333186219773
  3   1.42036498571946  9.11891265812518
  4   2.43929163038713  8.73148307248808
  5   3.37314855167908   8.1894003980677
  6   4.19346835791985  7.50031122599915
  7   4.96450591529359  6.75527325646972
  8   5.74955056749698  6.02792054231199
  9   6.54116220640013  5.31285819717276
 10   7.27388511220707  4.53987180114374
 11   7.77017395764292  3.57730619470492
 12   7.69642079674692  2.91059431498556
 13   7.28941334268988  2.44390029440043
 14    6.7787632143814  2.36479548667409
 15   6.35695482437127  2.60622412746919
 16   6.12515034255663  3.31597435094364
 17   6.06027508990287  3.61145704975933
 18   6.00566493995661  3.85753955529266
 19   5.96735559106732  4.01550644304569
 20   5.93004999200962   4.1577688415524
 21   5.89140853496546  4.29395173784963
 22   5.85084940154733  4.42617346617916
 23   5.80799126750486  4.55526714715007
 24   5.76268508138526  4.68195517224958
 25     5.714548502567  4.80688053919938
 26   5.66347786521138  4.93075411111825
 27    5.6090991647991    5.054086556747
 28   5.55134016358554  5.17739276262024
 29   5.48993259036844  5.30097161924369
 30   5.42481742834324  5.42510335476093
 31   5.35584040225858   5.5499217082659
 32    5.2829439163309  5.67553268653858
 33   5.20603524668458  5.80196437396516
 34   5.12504739544766  5.92921750060195
 35   5.03989564665857  6.05725309116549
 36   4.95048927442122  6.18600931705448
 37   4.85671931547905  6.31540049011463
 38   4.75845901859579  6.44532171222895
 39   4.65556083639703  6.57564919873482
 40   4.54785635097276  6.70624084706768
 41   4.43515668519601   6.8369353045225
 42   4.31725451040375  6.96755000291014
 43   4.19392790860906  7.09787757464821
 44   4.06494712681178  7.22768022366062
 45   3.93008546987136  7.35668165284921
 46   3.78913539352004  7.48455688349743
 47   3.64192938300829  7.61092193604074
 48   3.48836217483604   7.7353275420692
 49   3.32840783551971  7.85726194167566
 50   3.16212554354704  7.97616510540041
 51   2.98965295120142  8.09145122691919
 52    2.8111918028828  8.20253262983929
 53   2.62699222725889   8.3088392329648
 54   2.43733984668039  8.40983138830386
 55   2.24254681041796  8.50500685780914
 56   2.04294610690996  8.59390377536432
 57   1.83888805699648   8.6761012929909
 58   1.63073806172983  8.75121907963445
 59   1.41887498906721  8.81891635829803
 60   1.20368984057329  8.87889084108842
 61  0.985584507668324  8.93087773064257
 62  0.764970525166606  8.97464885413045
 63  0.542267782956682  9.01001194535573
 64  0.317903183680292  9.03681006771536
 65  0.0923092471291632  9.05492116238177
 66  -0.134077332325447   9.0642577047228
 67  -0.360817166873844  9.06476645388984
 68  -0.587469686038957  9.05642828380034
 69  -0.813594668112249  9.03925808753934
 70  -1.03875378326632  9.01330475114821
 71  -1.26251213907094  8.97865119676413
 72   -1.4844398184653  8.93541449914987
 73  -1.70411339914772  8.88374608386655
 74  -1.92111744192994  8.82383201968573
 75  -2.13504593418852  8.75589342210145
 76  -2.34550367390036   8.6801869883227
 77  -2.55210758152346  8.59700568529168
 78  -2.75448793450648  8.50667960757286
 79  -2.95228953887121   8.4095770042051
 80  -3.14517289577569  8.30610542875588
 81  -3.33281550795971  8.19671286892118
 82  -3.51491363056393  8.08188851725044
 83  -3.69118503301377   7.9621624910558
 84  -3.86137369470251   7.8381032464444
 85  -4.02525765069346   7.7103107314019
 86   -4.1826609512287  7.57940293299326
 87  -4.33346908169887  7.44599444284636
 88  -4.47764388929829  7.31066907417291
 89  -4.61523103109627  7.17395340966033
 90  -4.74635419289506  7.03630007117048
 91  -4.87119672422987  6.89808509817957
 92   -4.9899774643354   6.7596165411822
 93  -5.10292820069342  6.62114767400607
 94  -5.21027670084469  6.48288947383204
 95  -5.31223573741299  6.34501998623481
 96  -5.40899690957225  6.20769030094764
 97  -5.50072789006919  6.07102765400358
 98  -5.58757216067915  5.93513621134143
 99  -5.66965072706265  5.80009580091811
100  -5.74706563307102  5.66595855031766
101  -5.81990522057451  5.53274307200777
102  -5.88825104896726  5.40042559015972
103  -5.95218618130558  5.26892735639308
104  -6.01180412379341  5.13809793903053
105   -6.0672172377386  5.00769461417798
106  -6.11856284823731  4.87735966582877
107  -6.16600475036948  4.74660027298443
108  -6.20972802830965  4.61477920305414
109  -6.24992643714912  4.48112755259573
110  -6.28678552360403  4.34478550271697
111  -6.32047480848191  4.20483461749212
112  -6.35118767479366  4.06010932562814
113  -6.37935181055544    3.907836216929
114  -6.40710723259547  3.73225707263497
115  -6.44015094290647  3.47659287318607
116  -6.47514661225167  3.17437551974145
117  -6.61741911788203  2.43981737667966
118  -6.99082193382907   2.1296071074764
119  -7.50274423136942  2.10420008874624
120  -7.95972163709803  2.42032752649526
121  -8.17957438985193  3.03723180620562
122  -7.84618715268535     4.04761276883
123  -7.23689215390497  4.84760721198151
124  -6.56003207978207  5.54955565622899
125  -5.87073354808209  6.25298213799952
126   -5.1681239907072  7.00099552771927
127  -4.44808943175147   7.7232347273539
128  -3.61993594565819  8.36290508852737
129  -2.76724205462086  8.80640837232544
130  -1.74902280352702  9.11471813788379
131  -0.351089612409081  9.79488623989173
132  0.771985990097558  9.75603011368334
133   1.86564616719691  9.50576430087286
134   2.90389081813727  9.08525287681273
135   3.85859591264614  8.50551065955518
136   4.70691714010861  7.78587688887153
137   5.50975346780994  7.01886780708061
138   6.31637763160779  6.25631132620425
139   7.12443700795797  5.49282829742444
140   7.84900768235721  4.64776169716461
141   8.24987404682055  3.61316613148082
142   8.19347198750859  2.90662471158655
143   7.77825101203063  2.31989397097192
144   7.12291307037684  1.99293143712135
145   6.40092498335748  1.83932128729787
146   5.75103101506735  1.45362210503288
147   5.56986990404433  1.41285613669334
148   5.39253415963917  1.40294823349645
149   5.21631877784778  1.42078537638743
150   5.04627631269151   1.4625788370744
151   4.88436283743449  1.52435384523446
152   4.73141559163869  1.60273894777806
153   4.58764576256684  1.69490512577812
154   4.45285227839109  1.79840833599156
155   4.32653352951781  1.91108146950444
156    4.2079640616633   2.0309916588592
157   4.09626395856263   2.1564374952085
158    3.9904712645007  2.28595428186824
159   3.88960676432593  2.41831186699352
160   3.79272717939242   2.5524989787004
161   3.69896027466665  2.68769840699428
162   3.60752472200412  2.82325705595546
163   3.51773650249954   2.9586558547532
164   3.42900657630857  3.09348185370912
165    3.3408328769185  3.22740397575664
166   3.25278962436891  3.36015256989572
167   3.16451572077373  3.49150259364553
168   3.07570350116546  3.62125991965921
169   2.98608852637377  3.74925025530582
170    2.8954407911943  3.87531020604334
171   2.80355748351765  3.99928011753998
172   2.71025728995158  4.12099844644724
173   2.61537613436385  4.24029753830032
174   2.51876414059934   4.3570008146264
175   2.42028352419924  4.47092145572534
176   2.31980708525553   4.5818626368027
177   2.21721709500845  4.68961913787424
178   2.11240471667194   4.7939797040706
179   2.00527051521239  4.89472917001678
180   1.89572663453621  4.99164955865468
181   1.78370060066871  5.08452017344835
182   1.66913992371985  5.17311743814436
183   1.55201642100763  5.25721528301183
184   1.43232953047516  5.33658641107561
185   1.31010838105354  5.41100433477665
186   1.18541270896987  5.48024589267722
187   1.05833282487055  5.54409397014928
188  0.928988836663276  5.60234022936095
189  0.797529294235169  5.65478773037614
190   0.66412938135329  5.70125337687456
191  0.528988748218044  5.74157014965905
192  0.392329055944655  5.77558910649867
193  0.254391289432333  5.80318113440049
194  0.115432885263803  5.82423844418948
195  -0.0242752853390551  5.83867579952482
196  -0.164452043091416  5.84643147425512
197  -0.304809104689497  5.84746793373173
198  -0.445054334763162  5.84177223746853
199  -0.584895018062203  5.82935616233592
200  -0.724041125568168  5.81025604725392
201  -0.862208549111766   5.7845323620519
202  -0.999122279489722  5.75226900474844
203  -1.13451950299426  5.71357233293494
204  -1.26815259063759  5.66856993617464
205  -1.39979195305375  5.61740915731872
206  -1.52922873185914  5.56025537139736
207  -1.65627729473673  5.49729003141726
208  -1.78077749597738  5.42870849146607
209  -1.90259665554622  5.35471762013931
210    -2.021631196234  5.27553322385967
211  -2.13780785772634  5.19137731463618
212  -2.25108437583635  5.10247528768057
213  -2.36144947395194  5.00905313120081
214  -2.46892196992977  4.91133488093183
215  -2.57354878755374  4.80954064096923
216  -2.67540175504982  4.70388554520051
217  -2.77457338555727  4.59457986947696
218  -2.87117237961976  4.48182999106564
219  -2.96532005402712  4.36583925673079
220  -3.05714874031297  4.24680775789361
221  -3.14680236076157  4.12493088687637
222  -3.23443864980845  4.00039762647881
223  -3.32023246698752  3.87338983752286
224   -3.4043800917744  3.74408337131855
225  -3.48710475963826  3.61265128929646
226  -3.56866379549642  3.47926920581106
227  -3.64935760530926  3.34412277370071
228  -3.72954059839814  3.20741747124146
229  -3.80963385797886  3.06939102185269
230  -3.89013902398686  2.93032892592204
231  -3.97165234374716  2.79058365911453
232  -4.05487713213917  2.65059801929659
233  -4.14063196462499  2.51093275722104
234  -4.22985091893907   2.3722978446129
235   -4.3235714204896  2.23558540226089
236  -4.42290542733285  2.10190051418098
237  -4.52899173488798  1.97258466469393
238  -4.64293156200101  1.84922734452704
239  -4.76571501264519  1.73366735290383
240    -4.898147666435  1.62799836854179
241  -5.04077658584266  1.53460957833886
242  -5.19378745991146  1.45629641465492
243  -5.35679383784274  1.39644136862773
244  -5.52808518234908  1.35916646105337
245  -5.70411862982889  1.34857535811424
246   -5.8879460026768   1.3676731567317
247  -6.57804674837565  1.67129687118529
248  -7.31346742565358  1.72997021824917
249  -8.00197933584029  1.98267330351474
250  -8.46866844609581  2.53510894044704
251  -8.61716586518812  3.23384207794626
252  -8.36124049382252  4.31680873377071
253  -7.70231320275911  5.21266914769676
254  -6.93171380446127  6.01474139137947
255  -6.14153116623012  6.79826497284617
256  -5.34945825348858  7.58224044632396
257  -4.51475451575586   8.3248497054227
258  -3.58798635664121   8.9514382451818
259  -2.55390444812899  9.38011382470786
260  -1.46358780803753  9.65022529065724
