// Id               X                Y
  1  -0.425705800190278  14.6872933617126
  2  0.649245721897484  14.6659003898738
  3   1.69423046075655  14.4454072743122
  4   2.70519975578488  14.0622910113856
  5   3.62289915884228  13.5231668364434
  6    4.4145186759783  12.7994339341851
  7    5.0523025979521    11.96699411311
  8   5.64685993546859  11.1307373513707
  9   6.26554264200621  10.3237363455838
 10   6.89089356875179  9.52017363092799
 11   7.42465306004004   8.6233467195264
 12   7.55444576193081  7.99971265801594
 13   7.43971491825995  7.39889201247224
 14   7.08600083898029  6.99970073255173
 15   6.59483120908219  6.89060033891068
 16   5.99487463302506  7.27235790873493
 17    5.8600170080703  7.45079203773358
 18   5.75776772556492  7.63281608532746
 19   5.68425870063407  7.80301726485886
 20   5.62561240676211  7.97744701771492
 21   5.57928218329431  8.15553324495949
 22   5.54317518148961  8.33629944920568
 23    5.5152982446547  8.51888701599913
 24   5.49372216538455  8.70269226698999
 25   5.47660672085331  8.88737647409998
 26   5.46222467828545  9.07281342037535
 27   5.44897048325111  9.25901800399289
 28   5.43535620130522  9.44608492645677
 29   5.41999988413122  9.63415496397979
 30   5.40160642850755  9.82343170469202
 31    5.3789215793172  10.0143518307857
 32   5.35014132978102   10.210920123881
 33   5.31329295135837  10.4152983420554
 34    5.2681999455499  10.6202470133573
 35   5.21412956900956  10.8246602975271
 36   5.15052195093146  11.0276905636497
 37   5.07700448537284  11.2285685701885
 38   4.99338542183878  11.4265697232241
 39   4.89963891953853  11.6210132753997
 40   4.79588478372277  11.8112703045711
 41   4.68236493565716  11.9967723952074
 42   4.55941847506283  12.1770177890702
 43   4.42745704293032  12.3515738534703
 44   4.28694191696236  12.5200758294647
 45   4.13836388802427  12.6822224454561
 46   3.98222653251041  12.8377692821535
 47   3.81903309642023  12.9865208392195
 48   3.64927686171503  13.1283221719227
 49    3.4734346571684  13.2630507801544
 50   3.29196299872052  13.3906092458381
 51    3.1052963647511  13.5109188857445
 52   2.91384701827168  13.6239145685868
 53   2.71800599497461  13.7295406524254
 54   2.51814474270103  13.8277480044974
 55   2.31461724636228  13.9184919037969
 56   2.10776222318002  14.0017307408556
 57   1.89790542038169  14.0774252762279
 58   1.68536168203886  14.1455383950265
 59   1.47043694502873   14.206035143469
 60   1.25342989807174  14.2588830234947
 61   1.03463351789951  14.3040523788831
 62  0.814336277647189  14.3415168796367
 63  0.592823241141804  14.3712539854067
 64  0.370376893687378  14.3932454139432
 65  0.147277891706496  14.4074775310128
 66  -0.0761943676565464  14.4139416992447
 67  -0.299761221415819  14.4126345223347
 68  -0.523144306227056  14.4035580316226
 69  -0.746065141002771  14.3867197554866
 70  -0.968244701936673   14.362132733289
 71  -1.18940300890561   14.329815401472
 72  -1.40925858487273  14.2897914429293
 73  -1.62752795373508  14.2420894942685
 74  -1.84392485098112  14.1867428607322
 75  -2.05815953276939  14.1237890783465
 76  -2.26993757982531  14.0532695803035
 77   -2.4789588836104  13.9752292337076
 78   -2.6849158883007  13.8897161631001
 79  -2.88749214931082  13.7967815345235
 80  -3.08636003736649  13.6964798789594
 81   -3.2811789994485  13.5888695216362
 82  -3.47159312679531  13.4740137951519
 83  -3.65722956123902  13.3519825595033
 84  -3.83769660561485  13.2228547363319
 85  -4.01258293133065  13.0867214674933
 86  -4.18145716543034  12.9436904955708
 87  -4.34386906780254   12.793891443112
 88   -4.4993521617104  12.6374822494214
 89  -4.64742879582241  12.4746563577373
 90  -4.78761784976302   12.305650447741
 91  -4.91944569880333  12.1307520796763
 92   -5.0424605794347  11.9503065905622
 93  -5.15625041225309  11.7647223683951
 94  -5.26046369625791  11.5744736587018
 95  -5.35483273038543   11.380100208339
 96  -5.43919798111604  11.1822035280725
 97  -5.51353206281678  10.9814404911989
 98  -5.57796151410118  10.7785168669883
 99  -5.63278424974705   10.574187861171
100  -5.67847947825166  10.3692874204465
101  -5.71569925083804  10.1648866252117
102  -5.74499396440943  9.96469061246298
103  -5.76731425716058  9.77333036734665
104  -5.78494364854857  9.58345293636452
105  -5.79908191865652  9.39458010204433
106  -5.81097638780299  9.20648745993981
107  -5.82197413116724  9.01902786942466
108  -5.83354481311736  8.83211885399056
109  -5.84729382995694  8.64577689242132
110  -5.86496569256877  8.46016248624309
111  -5.88843745139363  8.27560082335509
112   -5.9197167878877  8.09253411685711
113  -5.96100615703594  7.91132478623896
114  -6.01514059251171  7.73140119183759
115  -6.09423299688247  7.53390670950959
116  -6.20181902344862  7.33698587885032
117  -6.72700150113065  6.85132302221695
118  -7.22939356005637  6.86418647980826
119  -7.64757733628316  7.18914541402366
120  -7.85184999150643  7.73222658363717
121  -7.80489047079997  8.36295942956878
122  -7.33094010872831  9.29406935623392
123  -6.73167401878167   10.098505098196
124  -6.12860443274314  10.8867442111783
125   -5.5405404336389  11.7144682802276
126  -4.94543607294382  12.5607845466617
127  -4.27626057711955  13.2298091997111
128  -3.43890200357062    13.84406249562
129  -2.47974351047395  14.2752282076404
130  -1.46069918197237  14.5228828188432
131  -0.285612752825291  15.2524164992701
132  0.805038502124029  15.2227013775528
133    1.8705150346392  15.0019517481163
134   2.88702979357507  14.6161583913146
135     3.824935617201  14.0635497195679
136   4.64010648397059  13.3356982003521
137   5.34486432851526  12.4973062433556
138   6.00517082496787   11.626693506714
139   6.67866285445478  10.7717789874036
140   7.33860810256055  9.90833541104417
141   7.85899427331299  8.95348068884385
142   8.00239636479454  8.28266628862218
143   7.92558238118894  7.59247926298359
144   7.61290647004824  6.95934243216989
145   7.16115593351282  6.41389353769348
146   6.74429483821116  5.85960687779339
147   6.29958946042219  5.46248751469448
148   5.90775765526253   5.2953911622806
149   5.54789600994063   5.2464856287158
150   5.22158257159083  5.27600244503642
151   4.92740701274473  5.36145889280694
152   4.66363004064441  5.48889157001334
153   4.42828047805781  5.64886704041531
154   4.21939082541814   5.8344767872884
155   4.03503774021791  6.04016552922006
156   3.87323692806818  6.26108125053054
157   3.73181522775231  6.49279125749993
158   3.60834947338696  6.73122602623241
159   3.50020193806805  6.97271767410609
160   3.40463668555156  7.21401729469612
161   3.31900462656555  7.45214779866869
162    3.2417865236639  7.68153474016328
163     3.171383779744  7.89787467616984
164   3.10414733822576  8.10534156029616
165   3.03844443600398  8.30366757135658
166    2.9730413511345  8.49268119241284
167   2.90701277664128  8.67239317364858
168   2.83968007739061  8.84297710855826
169   2.77055594168505  9.00473073723945
170   2.69929531037487  9.15803597610302
171   2.62565432630487  9.30332307628604
172   2.54945809255934  9.44104054994295
173   2.47057705373828  9.57163116565799
174   2.38891076932666  9.69551356681761
175   2.30437831368715   9.8130693401141
176   2.21691240694163    9.924633890554
177   2.12645913899343   10.030492808689
178   2.03297553895689  10.1308778016982
179   1.93643656015427  10.2259722959673
180   1.83682871777323  10.3159056538777
181   1.73416607449392  10.4007717654571
182   1.62847266074102  10.4806113572449
183   1.51981105222378  10.5554513425513
184   1.40824883718061   10.625263422251
185   1.29390104776459   10.690032454437
186   1.17688151478003  10.7496829104871
187    1.0573552770332   10.804179618195
188  0.935481390414355  10.8534211990566
189  0.811467710660005  10.8973694074208
190  0.685513942275777  10.9359153848658
191  0.557861378133112  10.9690301142543
192   0.42874311414428  10.9966105177205
193  0.298424142166395  11.0186460544403
194  0.167162387452849  11.0350467368169
195  0.0352370150376742  11.0458282374967
196  -0.097077727049589  11.0509153243045
197  -0.22949815625987  11.0503570746329
198  -0.361741115183877  11.0440898896017
199  -0.493528930850851  11.0322031363523
200  -0.62457514833475  11.0146380869033
201  -0.754620079856514  10.9915301758293
202  -0.88337736187606  10.9628170312915
203  -1.01061833162896  10.9286825201748
204   -1.1360582712558  10.8890537452951
205  -1.25951178337776  10.8441580542994
206  -1.38069833946121  10.7939110695044
207  -1.49948475533314  10.7385665613407
208   -1.6156043651807  10.6780350084999
209  -1.72897986288381   10.612564085953
210  -1.83937934956583  10.5420669094719
211  -1.94677692528702  10.4667409808123
212  -2.05099978878154  10.3865015942368
213  -2.15205864651359  10.3014559773813
214   -2.2498519592951  10.2115078717283
215  -2.34440940832621  10.1166531959359
216  -2.43569570063231  10.0167579279105
217  -2.52375142938102  9.91170258407775
218  -2.60859249859309  9.80128468666561
219  -2.69027229621685  9.68527338137252
220  -2.76884350424019  9.56337922367411
221  -2.84438067929838  9.43527370784933
222  -2.91697420430994  9.30058918980756
223   -2.9867444067839   9.1589338503104
224  -3.05385440315786  9.00990714583252
225  -3.11853341544184  8.85312256079666
226  -3.18110756551041  8.68823549753644
227  -3.24204028996844  8.51497666904068
228  -3.30198132457833  8.33318874142619
229  -3.36182292756689   8.1428605519803
230  -3.42276321732829  7.94414114907535
231  -3.48639592688636  7.73725380503296
232  -3.55538532506669  7.52061520487655
233  -3.63313772312137  7.29276506009852
234   -3.7203533594402  7.06206616304273
235  -3.81974200247514  6.83123610677061
236   -3.9341711146416  6.60311017678717
237  -4.06654754033062  6.38080587863114
238  -4.21979792939462  6.16777570515977
239  -4.39693744771876  5.96792943276706
240  -4.60120799879962  5.78595302463289
241  -4.83623105250874  5.62795399753828
242  -5.10611073643951  5.50258986021705
243   -5.4155330451029  5.42298738772812
244   -5.7703651228677  5.41050717994768
245  -6.17662406628871  5.50332962848582
246  -6.68035873878017  5.80772694301313
247  -7.19244479606428  6.27337308220679
248  -7.73920165966476   6.7219097420214
249  -8.15888386194679  7.28838550091911
250  -8.33493877107271  7.95840864642188
251  -8.26846395313215  8.63981313671475
252  -7.81799430481738  9.62827645275365
253  -7.18167209592512  10.5082787120858
254  -6.51147264014937  11.3642038273749
255    -5.858008750578  12.2378761020555
256  -5.17375797821599  13.0940579337797
257  -4.36363257111286   13.831899827748
258  -3.44268992353644  14.4295216548561
259  -2.43293825599586  14.8565511327724
260  -1.37136628869856  15.1199756838307
