// Id               X                Y
  1  -0.111861634292177  5.13585725052506
  2  0.822171737944108  5.09735669651621
  3   1.76202590253232  4.93898119838916
  4   2.65759614042543  4.64766480528817
  5   3.50165867400802  4.28659224056612
  6    4.3460805482479  3.92907775393702
  7   5.19935363781926  3.58147064234446
  8   6.05601714680962  3.23302684914506
  9    6.9031919422915  2.85233649123361
 10   7.71741869480406  2.38700319300652
 11   8.44976169143933  1.75667566655914
 12   8.73032272970105  1.25757979859565
 13    8.7923609544108 0.681131578087575
 14   8.56698696992723 0.230794020956079
 15   8.13652730509031 0.0256653581085937
 16    7.4507018971898 0.305912008790529
 17   7.23941956774476 0.463158525365258
 18   7.05817263387544 0.624540197784745
 19   6.91922912808967 0.762608865355885
 20   6.80490557926559 0.884404098441629
 21   6.69709168917816  1.00513684586028
 22   6.59309851421803  1.12601350132443
 23   6.49161928989473   1.2471167233249
 24   6.39180067933603  1.36821231383955
 25   6.29296898350153  1.48900914817593
 26   6.19453505441121  1.60925792875956
 27   6.09596440750145  1.72877873532144
 28   5.99677107986478  1.84745616782479
 29    5.8965182719742  1.96522252718096
 30   5.79481929304662  2.08203933029264
 31   5.69133685427379  2.19788158716658
 32   5.58578053427392  2.31272614795289
 33    5.4779028361785    2.426543952326
 34   5.36749438415163  2.53929544055843
 35   5.25437876539848  2.65092827202181
 36   5.13840742406236  2.76137659320355
 37    5.0194548985146  2.87056126744202
 38   4.89741458243281  2.97839065213063
 39   4.77219509290309  3.08476165460455
 40   4.64371725063688  3.18956090604342
 41    4.5119116192672  3.29266596584068
 42    4.3767165103701    3.393946514224
 43   4.23807633386513  3.49326551669814
 44   4.09594015371852  3.59048035754584
 45   3.95026028878992  3.68544394728812
 46   3.80099076791122  3.77800581588882
 47   3.64808539065084  3.86801321497797
 48   3.49149503105936  3.95531227610681
 49   3.33116358935805  4.03974932268067
 50    3.1670215027064   4.1211725448393
 51   2.99897460492842  4.19943450712489
 52   2.82688336444818  4.27439660878585
 53   2.65052013821295  4.34593833907026
 54   2.46947193254926   4.4139785146955
 55   2.28294034983953  4.47851312402203
 56   2.09005837300939  4.53946129528803
 57   1.89176916410447  4.59614479667902
 58   1.68950479793944   4.6478786573686
 59   1.48415889458877  4.69425959429075
 60   1.27633307102843  4.73503707047367
 61   1.06648982359314  4.77004301856082
 62  0.855017799819061  4.79916022400303
 63  0.642262296219614   4.8223061831772
 64  0.428541313415869  4.83942386139704
 65  0.214155104720425   4.8504760144485
 66  -0.000607402022955563  4.85544165139164
 67  -0.215463673214167  4.85431397226894
 68  -0.430133293162681  4.84709948272267
 69  -0.644333928593078  4.83381815425007
 70  -0.857777105747005  4.81450462776554
 71  -1.07016330579361  4.78921057138994
 72  -1.28117542893803  4.75800851949624
 73  -1.49046879109254  4.72099791164506
 74  -1.69765390196784  4.67831491659191
 75   -1.9022631305292   4.6301497822751
 76  -2.10367888287786   4.5767812999484
 77  -2.30096864465271  4.51865313347749
 78  -2.49270378416114  4.45648453574167
 79  -2.67826158271877  4.39086397356212
 80  -2.85855678057685  4.32183825050776
 81  -3.03430320239233  4.24943020167001
 82  -3.20587649250762  4.17373168910198
 83  -3.37348967451823  4.09486833795514
 84  -3.53727651611377  4.01298075506912
 85  -3.69732895549686  3.92821598139485
 86  -3.85371555367507   3.8407231144773
 87  -4.00649145526685  3.75065067226393
 88  -4.15570418269986  3.65814472570736
 89  -4.30139723574047  3.56334738927879
 90  -4.44361249353723  3.46639548872855
 91  -4.58239198018081  3.36741932619699
 92  -4.71777934757969  3.26654150876459
 93  -4.84982132672269  3.16387582747469
 94  -4.97856934486608  3.05952618322144
 95  -5.10408147445625  2.95358556121849
 96  -5.22642485415631  2.84613506296556
 97  -5.34567869291373  2.73724302008389
 98  -5.46193792701571  2.62696424591546
 99  -5.57531754220599  2.51533953759544
100   -5.6859574957872  2.40239563258328
101  -5.79402807889752  2.28814595499347
102  -5.89973545361794  2.17259265417275
103  -6.00332699581296  2.05573061624507
104  -6.10509599324308    1.937554257739
105  -6.20538522947957  1.81806786401951
106  -6.30458912699117  1.69729977372713
107  -6.40315469617818  1.57531937874004
108   -6.5015832249313  1.45225286963327
109  -6.60043902296461  1.32828746794476
110  -6.70038209349367  1.20364211205866
111  -6.80226759449522  1.07845891209141
112  -6.90743645026412 0.952499401191638
113  -7.01877723883885 0.824096610205547
114  -7.16573307194836 0.664344900184901
115  -7.33989249318666 0.493097743025851
116  -7.54254013827971 0.323514894270641
117  -8.20848652717051 -0.00501589009855624
118  -8.65422702344651  0.16475172930692
119  -8.91587797767906 0.593183996865517
120  -8.90415034311722  1.15949230719699
121  -8.66976670435371  1.66729737688626
122  -7.98248025186475  2.33308796953988
123  -7.18752707872988  2.82213844612882
124  -6.34956557691449  3.21448352692771
125  -5.49694098148368  3.56523414507105
126  -4.64414577915944  3.90875577930946
127  -3.79692029172221  4.25725763127348
128  -2.95078175667394  4.60731076018933
129  -2.07552470233396  4.87545728177135
130  -1.07829625861094  5.03745227252065
131  -0.241252566646444  5.70704722748409
132  0.712015141262725  5.67228490155706
133   1.66850525799633  5.51750268464965
134   2.65868606851558  5.23957782643367
135   3.60894334744269  4.88984071265199
136   4.49772402918014  4.52929147177814
137   5.37211952520819  4.17577596592249
138   6.23996474665955  3.82385377227561
139   7.09022149755607  3.44208137303775
140   7.89058612838352  2.97452971201731
141   8.57448768265753  2.35048141645284
142   8.94222654954237  1.75031221401227
143   9.12049788829759  1.06226682713423
144   9.06946875327622 0.337736826581387
145   8.81173387211526 -0.342385974773927
146   8.42109708803619 -0.947720786936294
147   8.20703009527079 -1.15969342067829
148   7.97979790322732 -1.32938230682356
149   7.74056362690137 -1.46188811634929
150   7.49332411112934 -1.55957757279085
151   7.24401566716153 -1.62448055263816
152   6.99628916308436  -1.6598697523655
153   6.75277299334677 -1.66911799551685
154   6.51520974563757 -1.65547993353217
155    6.2846369834029 -1.62197217894916
156   6.06157844944803 -1.57133028711513
157   5.84620759649186 -1.50601868533948
158   5.63846688689714 -1.42826559230625
159   5.43814469545699  -1.3401006172574
160   5.24492111506943 -1.24338281579729
161   5.05839555988522 -1.13981618739491
162   4.87810613252296 -1.03095532897018
163   4.70354647134645  -0.9182060449967
164   4.53418222357629 -0.802825293039527
165   4.36946713299179 -0.685923296149661
166   4.20885787338996 -0.568469005297415
167   4.05182674094053 -0.451298862968282
168    3.8978716790421 -0.335128123600793
169   3.74652353364062 -0.220563735574946
170   3.59735076923357 -0.10811782499867
171   3.44996207261375 0.00177899942203727
172   3.30400734923933 0.108765078278352
173   3.15917761382522 0.212536218099495
174   3.01520423074201 0.312835468976331
175   2.87185790228454 0.409444211303235
176   2.72894775765559  0.50217450983646
177   2.58632088466411 0.590862631697674
178   2.44386269567605 0.675363574840928
179   2.30149868787141 0.755546404302459
180   2.15919855083023 0.831290077321225
181   2.01698456593524 0.902479262162894
182   1.87494857193556 0.968998910752543
183    1.7332884959795  1.03072518601601
184   1.59239304836353  1.08750496151715
185   1.45302406867832  1.13911954004583
186   1.31609514671586  1.18540899573895
187    1.1810637627085  1.22676345759465
188   1.04693490464133   1.2636170756126
189  0.913164981029865  1.29619180262605
190  0.779465518382293  1.32457330261616
191  0.645687414890289  1.34881942598894
192   0.51175111901252  1.36891958659281
193   0.37763473917493  1.38490028205019
194  0.243342012822284  1.39671699645196
195  0.108907914263386  1.40439975284805
196  -0.0256226319719644  1.40789489503042
197  -0.160191824866326  1.40724483511989
198  -0.294739990353781  1.40240208379918
199  -0.429212552118319  1.39341762181856
200  -0.563560099403603  1.38025788844308
201  -0.697755611241496  1.36297098874266
202  -0.831788474023736  1.34153420618322
203  -0.965690376063141  1.31597484579421
204  -1.09953646004496  1.28625986910515
205  -1.23348923591079  1.25235891525308
206  -1.36784808237254  1.21415752930678
207  -1.50319382124706  1.17142989580529
208  -1.64051118177723  1.12372411385949
209  -1.78007931328579    1.070752840215
210  -1.92096537532364  1.01271615883248
211  -2.06249120467498 0.949831116307406
212  -2.20430833108333 0.882255834275065
213  -2.34624001166428 0.810124163721252
214  -2.48820854457982 0.733562695257656
215  -2.63020352835575 0.652699103963409
216  -2.77226679305133 0.567667064799108
217  -2.91448493076553 0.478610328694071
218   -3.0569856181991 0.385686894372856
219  -3.19993603262901 0.289073818429419
220  -3.34354247468878 0.188972963809419
221  -3.48805067356683 0.0856179005555501
222   -3.6337463937965 -0.0207179005933646
223    -3.780956007591 -0.129711513655069
224  -3.93004668723841 -0.240979671343602
225  -4.08142583875712 -0.35406670902903
226  -4.23553936564072 -0.468431671747386
227  -4.39286834930348 -0.583435120825976
228  -4.55392379558662 -0.698326386185425
229  -4.71923925897555 -0.812232170559722
230  -4.88936143401939 -0.924147428751849
231  -5.06483915979041 -1.03292918551326
232  -5.24621157959204 -1.13729327233368
233  -5.43399615093505 -1.23581276608225
234  -5.62867638759694 -1.32691529952689
235  -5.83068720048756 -1.40887484244472
236   -6.0403923408674 -1.47979295430544
237  -6.25804433415707  -1.5375661863238
238  -6.48371417143426 -1.57984143080755
239  -6.71717879634067 -1.60396969348302
240  -6.95776228915352 -1.60697900582865
241  -7.20414289514214  -1.5855945132614
242  -7.45415683295123 -1.53633376499601
243  -7.70461021503885 -1.45571400722487
244  -7.94835639999081 -1.34216599256247
245  -8.18560850909182 -1.19110487149213
246  -8.41398515974052 -0.99778331152745
247  -8.85194132406156 -0.428228918527255
248  -9.16603989571694 0.226085688922622
249  -9.27676327063062 0.942642288964968
250  -9.15061364401707  1.64043473299938
251  -8.82184553667284  2.26184986000485
252  -8.16989851385869   2.9165367659359
253  -7.38571021733691  3.40784982289831
254   -6.5434076062112  3.80199053189795
255   -5.6797883220554  4.15635697588702
256   -4.8090803982124  4.50550179988749
257  -3.92949684886911  4.85780402626619
258  -3.02807938787315   5.1899516401439
259  -2.10637878512811  5.45759322289379
260  -1.17883441821836  5.63085150918989
