// Id               X                Y
  1  -0.0682462545753804  3.95435961177033
  2  0.929738617489654  3.94597312547253
  3   1.96744969992308  3.91725090550693
  4   3.00964472484836  3.83899470702057
  5    4.0409336013094  3.60881410241598
  6   4.99325533730437   3.2337883496269
  7   5.81750676133208  2.75278656105056
  8   6.60517619292229  2.20996902212324
  9   7.33307789295081   1.5960781431118
 10   7.91577697264753 0.860805378707711
 11   8.17560179123475 -0.0388528930361274
 12    8.0428559279729 -0.545564530668116
 13   7.68623515689449 -0.934306056165263
 14   7.17159939739503  -1.0707988377078
 15    6.6726922164016 -0.896128485622452
 16    6.3435023542028 -0.503548990912107
 17   6.41724561184946  1.07295099770553
 18   6.37675156585677  1.21732989105928
 19   6.33829102167332  1.33126053864561
 20   6.29984985781737  1.43047521311599
 21   6.26062818666683  1.52079638467835
 22   6.21921922836352  1.60724537156255
 23   6.17410639703441  1.69317208729163
 24   6.12416775774161  1.78046352314118
 25   6.06845039243044  1.86994521463201
 26   6.00625741345714  1.96188439206071
 27   5.93696469497638  2.05619199519103
 28   5.86001671339528  2.15262054304334
 29   5.77484331751118  2.25084198073309
 30   5.68080441021618  2.35052248973219
 31   5.57706397664206  2.45140439628464
 32   5.46218828032819  2.55357519906291
 33    5.3276602837613  2.66223421424784
 34   5.16706040064146  2.77857670565557
 35   4.99633122106501  2.88853399747695
 36   4.81782293982133  2.99042961460111
 37   4.63335560350313  3.08346839894615
 38   4.44454202191325  3.16732483796497
 39   4.25285241293365  3.24199953703196
 40   4.05964204655128  3.30773657521793
 41   3.86618879893932  3.36496116713604
 42   3.67378258922931  3.41422101325721
 43   3.48404698246421   3.4560991618812
 44   3.30571201756757  3.49004482125117
 45   3.13763169260382  3.51774047830103
 46   2.97275171094488  3.54127184003666
 47    2.8104888221344  3.56127471754796
 48   2.65054267849654  3.57824816471554
 49   2.49270052624684  3.59261177507797
 50   2.33678914440874  3.60472655011542
 51   2.18265710392215  3.61490652736523
 52   2.03016650007006  3.62342657645802
 53   1.87918849145997  3.63052811415502
 54   1.72960065143697  3.63642350707302
 55   1.58128528936475  3.64129957147136
 56   1.43412833353004  3.64532041569578
 57   1.28801855659879  3.64862978384624
 58   1.14284701702691  3.65135300798884
 59  0.998506639358394  3.65359864392435
 60  0.854891884799655  3.65545984418296
 61  0.711898480681515  3.65701550731987
 62  0.569423188242359  3.65833123231982
 63  0.427363595143767  3.65946009950422
 64  0.285617923703802  3.66044329383368
 65  0.144084848853136  3.66131058229406
 66  0.00266332180598517  3.66208065372899
 67  -0.138747603284515  3.66276132674418
 68  -0.280248941646932  3.66334962894732
 69  -0.42194195076785  3.66383174863884
 70  -0.563928305353832  3.66418285799604
 71  -0.706310276182305  3.66436680467069
 72  -0.849190915282046  3.66433566641532
 73  -0.992674250982709  3.66402916071246
 74  -1.13686549810469  3.66337389820954
 75  -1.28187129120654  3.66228246479482
 76  -1.42779995281979  3.66065231201383
 77  -1.57476181472394  3.65836442867493
 78  -1.72286961980812  3.65528175710145
 79  -1.87223904718715   3.6512473042774
 80  -2.02298942829633  3.64608187902104
 81  -2.17524476559883  3.63958135771731
 82  -2.32913524855241  3.63151333628042
 83  -2.48479963466149  3.62161295054677
 84  -2.64238927182557  3.60957750571531
 85   -2.8020756558362  3.59505924207021
 86  -2.96406709475282  3.57765468720458
 87  -3.12865556971512   3.5568856875831
 88  -3.29641277892359  3.53214701864849
 89  -3.47129599213894  3.50208106885112
 90  -3.66164684397111  3.46381603531267
 91  -3.85518349811293   3.4182741325465
 92  -4.05026532434834  3.36480464780479
 93  -4.24559261365073  3.30278857387236
 94  -4.43988610679939  3.23171815539926
 95  -4.63179146357209  3.15125272846226
 96  -4.81983619883032  3.06127830669352
 97  -5.00240092046062  2.96198439614274
 98  -5.17767188244612  2.85398638666075
 99  -5.34344952871961  2.73861368516689
100  -5.49552019742457  2.61954989221439
101  -5.61524542943615  2.51536223590856
102   -5.7226559667883  2.41273718834049
103  -5.81975217388804  2.31124940666942
104  -5.90752529514563  2.21110015200448
105  -5.98669205906333  2.11261352945722
106  -6.05786788577034  2.01611901309501
107  -6.12164707387522  1.92187688469728
108  -6.17866393697967  1.82998034826409
109  -6.22965764017851  1.74019270985506
110  -6.27554990327551  1.65167080022457
111  -6.31752475222659  1.56252952488013
112  -6.35703014829726  1.46931601776709
113  -6.39546398460184  1.36690292449429
114  -6.43347602092819  1.24929211051555
115  -6.47275005588171  1.10041039982078
116  -6.36407138781065 -0.470516646636392
117  -6.67815326892028 -0.876625087246158
118  -7.16894189554474 -1.07395288531781
119  -7.68934542616503 -0.96241576853945
120  -8.06303275741513 -0.590845778147464
121  -8.21583708436574 -0.0902629101380223
122  -7.98246212926336 0.817156473499179
123  -7.41365792610806  1.56537972304997
124  -6.68900880751131  2.19586201238935
125  -5.88791634418028  2.76399813780035
126  -5.02487424325155   3.2802746544711
127  -4.03051489055647   3.6641538090948
128  -3.08298437393054  3.85338887791266
129  -2.11225327209141  3.93289360046504
130   -1.0891747022547  3.94020535206978
131  -0.0526739540336946  4.54268898595315
132   1.05636272414746  4.52072343511375
133   2.16409466845512  4.47192099220766
134    3.2671129993898  4.36450720159662
135   4.34337614723571  4.10972382644292
136   5.36389771255591  3.68810298213504
137   6.30276744370899   3.1083123649991
138   7.17565166647206  2.43233009946716
139    7.9470780457564  1.63717947754148
140   8.49804224450156 0.668383429463038
141   8.52919830932059 -0.449582143820388
142   8.17410206846874 -1.07722389326811
143   7.56508049356204 -1.45975586617398
144   6.85099201352031 -1.50943696412776
145   6.15603125080987 -1.35944698285194
146    5.4663790972629  -1.5740481512725
147    5.4548471807102 -1.57340403410689
148   5.29777072243977 -1.50226466292445
149    5.1458109946873 -1.41752991306025
150   5.00013845778451 -1.32220498941477
151   4.86132971142893 -1.21727943622224
152   4.72967641521168 -1.10498564183219
153   4.60494048191216 -0.98794905763415
154   4.48649208339381 -0.868572479734569
155   4.37351566473776 -0.74888203626266
156   4.26515817760515 -0.630557463187216
157   4.16062784163023 -0.515005273232101
158   4.05926501013563 -0.403429881344954
159   3.96060128954071 -0.296893577862466
160   3.86442644344956 -0.196372878271126
161   3.77090651389292 -0.102846874169385
162    3.6809544260696 -0.0176077180539406
163   3.60225825486312 0.0522785839426487
164   3.54017281537193 0.102931101050122
165   3.47914152623142 0.147693880946273
166   3.41753298356302 0.187842089834789
167   3.35444256253389 0.224096021359756
168   3.28924486282967 0.256966137018481
169   3.22145047374577 0.286846905215092
170   3.15062830197283 0.314055098618601
171   3.07633799275955 0.338851027557045
172   2.99802512653891 0.361459469784663
173   2.91469736611522 0.382134337580713
174   2.81820312206263 0.402622879790447
175   2.71003417005241 0.422346116810461
176   2.59758827968041  0.43999477718077
177   2.48172096371319 0.455605532710679
178    2.3629540114313 0.469297844758572
179   2.24167868726584 0.481221500122562
180   2.11821035335335 0.491537260824326
181   1.99281205356306 0.500407194873062
182   1.86570788373191 0.507989284716245
183   1.73709182666026 0.514434325258378
184   1.60713410100219 0.519884146610215
185   1.47598594296149 0.524470626393902
186   1.34378331047255  0.52831517626242
187   1.21064980656324 0.531528511662937
188   1.07669901837735 0.534210587708652
189  0.942036409939722 0.536450628875596
190   0.80676086973085 0.538327207794181
191  0.670965989282473 0.539908345428289
192  0.534741131680699 0.541251615482279
193  0.398172336507544 0.542404242419575
194  0.261343098836087 0.543403186535341
195  0.124335053453526 0.544275212040517
196  -0.012771409109788 0.545036935670727
197  -0.149896571335292 0.545694854299581
198  -0.286960840856143 0.546245350648806
199  -0.423884205602281 0.546674676607268
200  -0.560585671679903 0.546958914016251
201  -0.696982662922317 0.547063913153914
202  -0.832990359292681 0.546945209670847
203  -0.968520948455955 0.546547921538402
204   -1.1034827606269 0.545806628886855
205  -1.23777925087007 0.544645241763201
206   -1.3713077848116 0.542976864355139
207   -1.5039581723581 0.540703669953078
208  -1.63561087814085  0.53771681021946
209  -1.76613481473061 0.533896397416291
210  -1.89538459104953 0.529111622721785
211  -2.02319703548456 0.523221113639314
212  -2.14938672207348 0.516073699022634
213  -2.27374005050669 0.507509860146362
214  -2.39600702674165 0.497364339398282
215  -2.51588879546694 0.485470754295941
216  -2.63301534876219 0.471669966128399
217  -2.74689239025195 0.455827030035411
218  -2.85669819952714 0.437878916437537
219  -2.95816416053825 0.418421933010684
220  -3.04262054827177 0.399332216335129
221  -3.12179969404098 0.378318333352456
222  -3.19674062990508 0.355153191065146
223  -3.26802633452284 0.329628821848205
224  -3.33610468058168 0.301499733973688
225  -3.40139521442189 0.270465138073757
226  -3.46435610520686 0.236150353229907
227  -3.52555460296449 0.198074088659908
228  -3.58578213591956 0.155575233907049
229  -3.64635153422747 0.107582885846886
230   -3.7108865904081 0.0510517066210322
231  -3.79815226423545 -0.0312017128899421
232  -3.88971532676304 -0.12268833594342
233  -3.98407191768351 -0.22172714893249
234  -4.08085451253969 -0.327277821116416
235   -4.1801632857844 -0.43835039265639
236  -4.28240196535543 -0.553881846069955
237  -4.38819814544453 -0.672673181360586
238  -4.49834041644292 -0.793327079729383
239  -4.61370670874767 -0.91417343136278
240  -4.73516256553266  -1.0331898271462
241  -4.86340563262103 -1.14796283645301
242  -4.99875168612812 -1.25583655359866
243  -5.14097874468649 -1.35453954508369
244  -5.28954806613927 -1.44307975449491
245  -5.44336122890574 -1.51839226197061
246  -5.45457785234504  -1.5192950229417
247  -6.14976411567168 -1.32573296238075
248   -6.8377004950404 -1.50344500690223
249  -7.55283736257978 -1.48298206005464
250  -8.17644080382671 -1.12521221548994
251  -8.55414506835544 -0.510922459251999
252  -8.55875817914972 0.607590852523382
253  -8.02887144518892  1.58855777434046
254  -7.26858090673147  2.39499267753665
255  -6.40303551442027  3.08089235841322
256  -5.46696526450975  3.66642070640706
257  -4.44320431298134  4.08599480059914
258  -3.37135616393352  4.36854562801659
259  -2.27047292084865  4.49863735953571
260   -1.1621697688413  4.52600574820615
