// Id               X                Y
  1  -0.081097735405325  1.39019845540779
  2  0.870137120390119  1.40243675699148
  3   1.84703283758671  1.43539691628805
  4   2.83465084302319  1.47273803501802
  5    3.7777734852711  1.45600355627239
  6   4.72054536649301  1.44460006747528
  7   5.65683829091858  1.54812820940106
  8   6.57159779504296  1.77227532520762
  9   7.47415664916749  2.04077392470613
 10    8.4016885823683  2.18714518532566
 11   9.31327809610946  1.96324943072281
 12   9.68072721343366  1.58045003806293
 13   9.82500525228798  1.06617685623123
 14   9.68404875423412 0.555293314315381
 15   9.30519026717163 0.201827858730769
 16   8.60968904860573 0.0910069768206372
 17   7.36886286344871 0.490815338248436
 18   7.14724034022577 0.560593132219757
 19   7.05499486524403 0.589079299400384
 20   6.99445980088421 0.607573432241236
 21   6.93347481023141 0.626015702003796
 22   6.86409676957529 0.646781135543729
 23    6.7847329242606 0.670211776682447
 24   6.69555767623264 0.696111845433371
 25   6.59721449480269 0.724105987003005
 26   6.49042773051963 0.753777971068531
 27   6.37588782316416 0.784701693980768
 28   6.25421919479751 0.816455894728813
 29   6.12597339193286 0.848630203741988
 30   5.99163262272373 0.880829247822525
 31   5.85161836921045 0.912675730414581
 32   5.70630301777631 0.943813065169766
 33   5.55602350380691 0.973907805723732
 34   5.40109637548279  1.00265207669759
 35   5.24183376982017  1.02976620428453
 36    5.0785596336563   1.0550017344561
 37   4.91162512171691  1.07814497619075
 38   4.74142152322256  1.09902108467472
 39   4.56838849278279  1.11749848328906
 40   4.39301513241364  1.13349312609578
 41   4.21583201078198  1.14697180016019
 42   4.03739376768417   1.1579535022582
 43   3.85825428733905  1.16650805285594
 44    3.6789386603862   1.1727515882475
 45   3.49991719653766   1.1768392668048
 46   3.32158603412905  1.17895615539201
 47   3.14425681569899  1.17930756762868
 48   2.96815548603913  1.17811003004642
 49   2.79342845036318  1.17558367387994
 50   2.62015348662599  1.17194638904279
 51   2.44835281372317  1.16740969296592
 52   2.27800623169333  1.16217603157622
 53   2.10906294258154  1.15643713942582
 54   1.94145131591522   1.1503731000726
 55   1.77508637812666  1.14415181852473
 56   1.60987515495562  1.13792870619329
 57    1.4457201953678  1.13184646041413
 58   1.28252168715879  1.12603488284185
 59   1.12017857374631  1.12061072076971
 60  0.958589030898653  1.11567753528695
 61  0.797650587382866  1.11132560548301
 62  0.637260093805666  1.10763187454437
 63  0.477313671474561  1.10465993665569
 64  0.317706714198302  1.10246005676069
 65   0.15833397230134  1.10106921057418
 66  -0.000910281490086023  1.10051113059615
 67  -0.16013202292837  1.10079634519482
 68  -0.319437212499323  1.10192220150638
 69  -0.478931529770309  1.10387286809807
 70  -0.638720138275861   1.1066193191293
 71  -0.798907508995901  1.11011930717938
 72  -0.959597321052226  1.11431733607913
 73  -1.12089244183726  1.11914464715896
 74  -1.28289496284286  1.12451923168304
 75  -1.44570622948228  1.13034587867464
 76  -1.60942675174486  1.13651626137353
 77  -1.77415581842191  1.14290905880287
 78   -1.9399905653829  1.14939010430292
 79   -2.1070241773748  1.15581255473234
 80  -2.27534284834566  1.16201708763558
 81  -2.44502110892324  1.16783216430168
 82  -2.61611517899266  1.17307444785742
 83  -2.78865415037489  1.17754953677141
 84  -2.96262908182943  1.18105325759817
 85  -3.13798051932739  1.18337383813222
 86   -3.3145855345178  1.18429532216416
 87  -3.49224604133018  1.18360254706605
 88  -3.67068074668422  1.18108784115399
 89  -3.84952334030685  1.17655928621262
 90  -4.02832908251546  1.16984996488151
 91   -4.2065905614331  1.16082719029195
 92  -4.38376120046153  1.14940048201653
 93  -4.55928280521124  1.13552717260172
 94  -4.73261208249254  1.11921502062051
 95  -4.90324135812465  1.10052188832261
 96  -5.07071050657735  1.07955313223916
 97   -5.2346094646257  1.05645764741311
 98  -5.39457262702311  1.03142347314608
 99  -5.55026740217719     1.00467362468
100  -5.70137930155046 0.976462510312027
101  -5.84759551042549 0.947073032030117
102  -5.98858831305502 0.916814290989153
103  -6.12399926862646 0.886019721855293
104   -6.2534247742479 0.855045434170435
105  -6.37640366567844 0.824268503649347
106  -6.49240791333578  0.79408486406064
107  -6.60083870571405 0.764906132116794
108  -6.70103379585723 0.737153666942689
109  -6.79230308475471 0.711244771385601
110  -6.87404635212034 0.687554611112271
111  -6.94613910744771 0.666296527180042
112  -7.01028093335979 0.647106047840569
113  -7.07501229889356 0.627483483926252
114    -7.173085934712 0.597283225855157
115  -7.39827356151668 0.526010877540963
116  -8.63796818610874 0.109967974105082
117  -9.33783042157808 0.200639579040816
118   -9.7310224887536 0.538163060689481
119  -9.89697616220854  1.04098950011618
120  -9.77998544251106   1.5606990756079
121  -9.43262953986312  1.95926467795201
122  -8.53333879613051  2.21369945170754
123  -7.60870873913708  2.08085088982115
124  -6.71319535092759  1.81172876898128
125  -5.80880425069327   1.5777795097408
126  -4.88290273776877  1.46046252649058
127  -3.95015707387723  1.45948617992629
128  -3.00882344604488  1.47747539023123
129  -2.01326756218705   1.4407857062897
130  -1.04210604577838  1.38623551799118
131  -0.064675392208355  1.98961685902301
132  0.884903356207367  2.00936917721344
133   1.83287116985898  2.04047059209493
134   2.78206061746197  2.06163907249889
135   3.73559084274641  2.05251417060008
136    4.6877700603101  2.05625509735487
137   5.63304822987635  2.16185314823612
138   6.56992067666958  2.38538202047965
139   7.56658856677392  2.64777202908667
140   8.61354508223523  2.75907688621465
141    9.6223605887045  2.45033168694101
142   10.0758894908827  1.97360316603196
143   10.2843773397847   1.3419426978321
144   10.2226691199788 0.666184295168785
145   10.0146312169763 0.0196955243464661
146   9.87283843551078 -0.602045887748051
147   9.77231738437915 -0.84509427460035
148   9.62372070469918 -1.09381449309488
149   9.43725154966533 -1.32131707598717
150   9.21994336951881 -1.52109189686405
151   8.98094881207454  -1.6892882019316
152   8.72818148724111 -1.82594960841629
153   8.46799698545406 -1.93320504985562
154   8.20525719755161 -2.01421092235699
155   7.94351558905627 -2.07252668331609
156    7.6852465031198 -2.11173723679076
157   7.43206984944889 -2.13523321250614
158   7.18495575954754 -2.14609374123338
159   6.94439927588335 -2.14703684055262
160   6.71056122679794 -2.14041246133714
161   6.48337645787915 -2.12822020956863
162   6.26263327981555 -2.11213942635306
163   6.04802891338494 -2.09356376668065
164   5.83920562675574 -2.07363571175858
165   5.63577177566967 -2.05327874295069
166   5.43731148248516 -2.03322640677845
167   5.24338645279662 -2.01404839841834
168   5.05353347788229 -1.99617422103931
169   4.86726136034743 -1.97991502709972
170   4.68405097992097 -1.96548398885256
171     4.503361526197 -1.95301509053433
172   4.32464425391411 -1.94257977128746
173   4.14736265912849  -1.9342006141383
174   3.97101557700651 -1.92786145142687
175   3.79515846980416 -1.92351382393374
176   3.61941870607827 -1.92108044461873
177   3.44350256372798 -1.92045684595409
178   3.26719399969476 -1.92151252013317
179   3.09034697300363 -1.92409260298494
180   2.91287388655327 -1.92802067633479
181   2.73473264503358 -1.93310277359158
182   2.55591426244287 -1.93913231082145
183   2.37643223075457 -1.94589548241593
184   2.19631420132889 -1.95317663898099
185   2.01559603284158 -1.96076325245203
186   1.83431794210967 -1.96845021108783
187   1.65252233292708 -1.97604332798113
188   1.47025283325958 -1.98336206214619
189   1.28755410281527 -1.99024152921437
190   1.10447204713026  -1.9965339197644
191  0.921054165022734 -2.00210945475924
192  0.737349845801363 -2.00685699926373
193  0.553410510390432 -2.01068443674415
194  0.369289551810414 -2.01351888381439
195  0.185042074719312 -2.01530680378333
196  0.000724463079600086 -2.01601405904719
197  -0.183606177260788 -2.01562592788378
198  -0.367892644861775 -2.01414710009955
199  -0.552078277869795 -2.01160165719949
200  -0.736107538403076 -2.00803303493787
201  -0.919926490578839 -2.00350395782036
202  -1.10348312552143 -1.99809632498667
203  -1.28672750247732 -1.99191101377878
204   -1.4696117006756 -1.98506755057468
205  -1.65208961479445 -1.97770357841045
206  -1.83411668003817 -1.96997402918521
207  -2.01564968114742 -1.96204988841614
208  -2.19664688005961 -1.95411642843822
209  -2.37706878154051 -1.94637078962118
210  -2.55687993098621 -1.93901881771899
211  -2.73605218271015 -1.93227112680046
212  -2.91456986172543  -1.9263384543695
213  -3.09243713179026  -1.9214265016592
214  -3.26968763877128 -1.91773058674946
215  -3.44639608983645 -1.91543054340089
216  -3.62269085213919 -1.91468632265184
217  -3.79876596753486 -1.91563464335166
218  -3.97489034260531 -1.91838675849832
219  -4.15141156965519 -1.92302697510017
220  -4.32875222035137 -1.92961108429933
221  -4.50739777439528 -1.93816350036074
222  -4.68787744889834 -1.94867186133575
223   -4.8707413585026 -1.96107819831478
224  -5.05653861995285 -1.97526642157403
225  -5.24580052222958 -1.99104651394981
226  -5.43903090936036  -2.0081361713867
227  -5.63670341112834 -2.02614056811786
228  -5.83926310311818 -2.04453054747732
229  -6.04712905014072 -2.06261906824031
230  -6.26069386596814 -2.07953538672079
231   -6.4803164961008 -2.09419637968921
232  -6.70630450462402  -2.1052747146167
233  -6.93888199751866 -2.11116434716545
234  -7.17813891763703  -2.1099451997645
235   -7.4239569595981  -2.0993510282536
236  -7.67590711628727 -2.07674763183413
237  -7.93311441419392 -2.03913291748217
238  -8.19408741586896  -1.9831760725706
239  -8.45651422767115 -1.90532052714968
240  -8.71703310662184 -1.80198588882173
241  -8.97099256404021 -1.66992401543706
242  -9.21221969222259 -1.50683797632496
243  -9.43284075358489 -1.31251646577138
244  -9.62363405766278 -1.09065898875024
245  -9.77759097297412 -0.847488185629453
246  -9.88296236431234 -0.611974502748105
247  -10.0430607594321 -0.000199220544103382
248  -10.2741802505451 0.638491805456844
249  -10.3617731443475   1.3119558647529
250  -10.1781598799851  1.95243107403679
251  -9.74223380109324  2.44619186610017
252  -8.74363430842522    2.785267382643
253  -7.69534096859449  2.68839681064514
254  -6.69771975258367  2.42446976148932
255  -5.76240352358171  2.19011527919249
256  -4.81782144149909  2.07017479360365
257  -3.86381576164852  2.05775489454848
258  -2.90860053731485  2.06082380462955
259  -1.95857771242911  2.03327446320917
260  -1.01016810260412  1.99475575130334
