// Id               X                Y
  1  -0.102719169231579  3.77707660547994
  2    0.8239115171334  3.73943524485142
  3   1.75603773021954  3.61816697183303
  4   2.69755314795336  3.41093982428956
  5   3.61808013108478  3.13337023734814
  6   4.48119759549561  2.82293014253375
  7   5.35690213788134  2.55028031634218
  8   6.24414722352578  2.32084085120044
  9   7.13385898486141  2.11622795527697
 10   8.01489456868342  1.89902413855499
 11   8.87528681381484    1.609530231658
 12   9.32021845618955  1.35851065846107
 13   9.71146203796337  1.00018194139903
 14   9.96686411953915 0.424658976170877
 15   9.82686188354486 -0.113414566540555
 16    9.1098587689242 -0.351766144602159
 17   8.60054306478752 -0.241485769502204
 18   8.50093811892764 -0.205836725031729
 19   8.44186873802281 -0.182484092739295
 20   8.38453019392364 -0.158269984553958
 21   8.32690596066782 -0.132397590606184
 22   8.26246576365845 -0.101692997906287
 23   8.18640255493805 -0.0630683443490189
 24    8.0970256534186 -0.0144921070979398
 25   7.99477742578424 0.045133838552519
 26   7.88113712386169  0.11617663264039
 27   7.75790991028804 0.198424989265893
 28   7.62687214652616 0.291172502700806
 29   7.48966973184628 0.393249121932129
 30   7.34778937439901 0.503082684096382
 31   7.20239268209268 0.618938358334337
 32   7.05409174780024 0.739260796227954
 33   6.90298382101462 0.862802099048154
 34   6.74885832582543 0.988553317930521
 35   6.59135053460454  1.11567118567231
 36    6.4300236041294   1.2434373642642
 37   6.26442022257316  1.37122901156517
 38   6.09410374924082  1.49849162164575
 39   5.91869513632208   1.6247140254371
 40   5.73790616780006  1.74940820193171
 41   5.55156634652499  1.87209686524015
 42   5.35963969570848  1.99231036489861
 43   5.16222887420235  2.10959200846703
 44   4.95956649365352  2.22350874940059
 45   4.75199604056687   2.3336632798178
 46   4.53994635262672  2.43970408424706
 47   4.32390389505208  2.54133139808964
 48   4.10438641147636  2.63829853778875
 49   3.88192037980693  2.73040921604531
 50    3.6570235147837  2.81751205463456
 51   3.43019256315437  2.89949364207363
 52   3.20189588340696  2.97627133878402
 53   2.97256971647886  3.04778677947727
 54   2.74261653317056  3.11400075870565
 55   2.51240336414721  3.17488991948861
 56   2.28225776100331  3.23044533202485
 57   2.05245947252101  3.28067256644937
 58   1.82322766313771   3.3255922422759
 59   1.59470667485748  3.36523953050693
 60   1.36695659739761  3.39966119388116
 61   1.13995541119777  3.42890983968796
 62  0.913615242605683  3.45303671571135
 63  0.687808368263641  3.47208541248241
 64  0.462394066395759  3.48608838217787
 65  0.237238153542131  3.49506665964878
 66  0.0122214053199249  3.49903173468333
 67  -0.212762381552773  3.49798792526874
 68  -0.437815045563038  3.49193382739736
 69  -0.663044540301248  3.48086211422129
 70  -0.888572066414628  3.46475782512901
 71  -1.11453118480029  3.44359612790598
 72  -1.34105600077052  3.41734112219101
 73  -1.56825910791861  3.38594722298518
 74  -1.79620480917197  3.34936373037307
 75  -2.02488650764879  3.30754161174274
 76  -2.25421590263585  3.26044029492651
 77  -2.48402575779654  3.20803239306369
 78  -2.71408175411623  3.15030565789897
 79  -2.94409656076097  3.08726296666778
 80  -3.17374106911382  3.01892184216538
 81   -3.4026511084625  2.94531482644054
 82  -3.63043055653566   2.8664914498894
 83  -3.85665289794462  2.78252197674583
 84   -4.0808633680185  2.69350271362808
 85  -4.30258343486913  2.59956240509401
 86  -4.52131887761608  2.50086902816601
 87  -4.73657221619774  2.39763609289194
 88  -4.94785969214063  2.29012738267958
 89  -5.15473230701103  2.17865901916913
 90  -5.35679956092243  2.06359794875938
 91  -5.55375357176101  1.94535654597298
 92  -5.74539041218033  1.82438403205492
 93  -5.93162510676074   1.7011566302571
 94  -6.11249711649468   1.5761693984239
 95  -6.28816442627161  1.44993295668662
 96  -6.45888624477354  1.32297751766958
 97  -6.62499604975086  1.19586491450705
 98  -6.78686727970292  1.06920749265606
 99  -6.94487262549351  0.94369182916901
100  -7.09933374809676 0.820106488503563
101   -7.2504464903346 0.699380354902448
102  -7.39814175142726 0.582654212817922
103  -7.54188490053471 0.471365510491431
104  -7.68062599186809 0.367163671848409
105  -7.81300419531685 0.271606685471562
106  -7.93750915340131  0.18592788724135
107  -8.05251769659789 0.110957748867101
108  -8.15638571448803 0.0470777892817192
109  -8.24776768475419 -0.00588076252332482
110  -8.32629256487651 -0.0488296154352333
111  -8.39365378678027 -0.0837169398760441
112  -8.45473474645732 -0.113750396678281
113  -8.51654064938881 -0.142560455597495
114  -8.58169998543321 -0.17118136142951
115  -8.69778984659895 -0.217666609509432
116  -9.20716354428869 -0.353608892453447
117  -9.94213924501505 -0.164631941016253
118  -10.1228288312129 0.346570115560723
119   -9.9265539610105 0.927370665315048
120  -9.57096607872822  1.31080520538697
121  -9.14921723298635  1.58622025823199
122  -8.30609501454624  1.90490380178126
123  -7.43454251324939  2.12868425562618
124  -6.55119535550044  2.32246056432784
125  -5.66811238535816  2.53091234924563
126  -4.79468354652534  2.77979113702438
127  -3.93510489313856  3.07208247897307
128  -3.07218630818073  3.35854329512148
129  -2.17117163245757  3.56945889307347
130   -1.1370503276278  3.69121289853708
131  -0.12468824648156  4.36240868871818
132  0.861003379082719  4.33077160947414
133   1.82663982916415  4.20412702029465
134   2.77166335097347  3.99420634263968
135    3.7022023200429   3.7209041182196
136   4.62081785917829  3.42232477827262
137    5.5320200873562  3.14395956849693
138   6.45350595209354  2.90349562846297
139   7.39633098031629  2.67640617331523
140   8.40067854532517  2.37703310074486
141   9.34678359656833  1.88980497072115
142   9.84531056042142  1.44137954319501
143    10.227430713414 0.899643386955869
144   10.4577579795468 0.389326182032161
145   10.6060259981725 -0.099632679914056
146   10.7547617759685 -0.747421869033876
147    10.746772244824 -1.82080801194491
148   10.5471772049384 -2.22499225501515
149   10.2735273626021  -2.5426903655182
150   9.95287025319537 -2.77917057626907
151   9.60222374006428 -2.94249017712165
152   9.23892623292154 -3.03895145431753
153   8.87839389730216 -3.07736121895759
154   8.53084713644504 -3.06855161472914
155   8.20135473327471 -3.02313825514628
156   7.89144639985494 -2.95018874333693
157    7.6006661673409 -2.85692768646948
158   7.32756276083308 -2.74892251049078
159   7.07017649615547 -2.63035626396337
160   6.82629246324058 -2.50427880690271
161   6.59375457734142 -2.37292698244623
162   6.37080069991615 -2.23810505258173
163   6.15610449492853  -2.1013976996279
164   5.94862109210838 -1.96420019949726
165   5.74747576531662  -1.8277151201599
166   5.55191677749362 -1.69296171404941
167    5.3612909307105 -1.56078879998312
168   5.17502266554838 -1.43188503537742
169   4.99259152822197 -1.30678622538448
170   4.81350830895734 -1.18588189959611
171   4.63729287092525 -1.06942441615447
172   4.46345739640644 -0.957543285457325
173    4.2914976620575 -0.850265532798321
174    4.1208928745287 -0.74754075473265
175   3.95111265786719 -0.649268091161027
176   3.78162867549527 -0.55532203735466
177    3.6119281716904 -0.465574626137334
178    3.4415271327541 -0.379912525001917
179   3.26998143360491 -0.298248594538605
180   3.09689500480338 -0.220528225754073
181   2.92192463514697 -0.146731272362996
182   2.74478153656995 -0.0768706681955776
183   2.56523031381279 -0.01098893415359
184   2.38308656003843 0.0508462308472342
185   2.19821490316305 0.108546229740283
186   2.01052971400316 0.162005022728694
187   1.82000034035124 0.211101672286633
188   1.62666102070996 0.255702695672065
189   1.43062245919457 0.295665599965772
190    1.2320788060393 0.330844884111603
191   1.03130336949787 0.361100567136939
192  0.828630699295079 0.386307489520469
193  0.624429593798943 0.406362643106587
194  0.419076029271475 0.421188538856992
195  0.212934138250281 0.430732523325272
196  0.00634890841309477 0.434963610244588
197  -0.200350328709616 0.433868985166133
198  -0.40683944404151  0.42745196346045
199  -0.61278717168801  0.41573229061071
200  -0.817846239666812  0.39874861314397
201  -1.02165282574968 0.376561913351235
202  -1.22383742961538 0.349257933049046
203  -1.42404663281951 0.316946533547127
204  -1.62197032903878 0.279756943638539
205  -1.81736552263992 0.237829714420628
206  -2.01006893077495 0.191307790327233
207  -2.19999643751802 0.140329184872219
208  -2.38713374822725 0.0850223193893283
209  -2.57152506146605 0.0255034054710341
210  -2.75326481957301 -0.038125528088196
211   -2.9324942321437 -0.105779116966151
212  -3.10940167306351 -0.177392067741049
213   -3.2842249526468 -0.252923189273926
214  -3.45725347219608 -0.332359270840166
215  -3.62882876803064 -0.415717787448493
216  -3.79934254239184 -0.503047338950362
217  -3.96923180500786 -0.594424772592454
218  -4.13897120980538 -0.689948092604162
219   -4.3090631219783 -0.789724556336484
220  -4.48002643978827 -0.893853838270581
221    -4.652385718769  -1.0024068278308
222  -4.82666261079072 -1.11540144949927
223  -5.00337184411455 -1.23277765662378
224  -5.18302368924276  -1.3543741254656
225  -5.36613392377836 -1.47990882223888
226  -5.55324086301882 -1.60896441886024
227  -5.74492761245512 -1.74097783231997
228  -5.94184715500465 -1.87523170903478
229  -6.14474899219028 -2.01084523552424
230  -6.35450989051444 -2.14676283561722
231  -6.57218312813001 -2.28174426189982
232  -6.79910642074994 -2.41436718599385
233  -7.03706384527522 -2.54300838850552
234  -7.28827565867163 -2.66565160147305
235  -7.55509718222761 -2.77950960776252
236  -7.83971825373209 -2.88068200215099
237  -8.14391031263622 -2.96387389297039
238  -8.46856321138577 -3.02209446856085
239  -8.81274816433009 -3.04641994334331
240   -9.1721983919376 -3.02618008249056
241   -9.5376150681132 -2.95014568881806
242  -9.89435288141346 -2.80877973596195
243  -10.2255961752017 -2.59513047755551
244  -10.5155744089155 -2.30058576291261
245  -10.7372140042948 -1.92270940373558
246  -10.8232123248486 -0.856135802766871
247   -10.723952464806 -0.200164423666151
248  -10.6148789308928 0.299009296167876
249  -10.4306449051901 0.811780187667606
250   -10.091403461744  1.37660877148206
251  -9.62097327234208   1.8538701661281
252  -8.69622624756711  2.37765899514407
253  -7.69473661499382  2.68971407585382
254  -6.74862429012696  2.90914918896656
255  -5.82245348890595  3.13043562800195
256  -4.90548938582797   3.3871233028142
257  -3.97846380906059  3.67188486555062
258  -3.01286029669812  3.94557997553269
259  -2.04088569876135  4.15951744852883
260  -1.08707676729929  4.29866308546256
