// Id               X                Y
  1  -0.409661052027698   4.3666173288049
  2  0.650522558721003  4.34324947418294
  3   1.71074173960109  4.20606172516345
  4   2.75086123723274  3.95938172930662
  5   3.74271989648141  3.59437811356769
  6   4.65707191393662  3.12722439256082
  7    5.5560876220131    2.605798948314
  8   6.43507241385452  2.06456199411879
  9   7.25320342805362  1.46711201348513
 10     7.934012035111 0.690451894904105
 11   8.16165052698537 -0.365778471386674
 12   7.76880105917949 -0.901112474967356
 13   7.23109861781259  -1.0313330534334
 14   6.73943812739531 -0.813976943901463
 15   6.45524674375594 -0.372435113104027
 16   6.44017815745636 0.432761390153491
 17   6.38875032219457  0.84205864309811
 18   6.35826318344228  0.94794043430504
 19   6.32352843055346  1.04567237765926
 20   6.28351577992477  1.14105793394974
 21   6.23759181199861  1.23613008446334
 22   6.18510061310485  1.33232123605114
 23   6.12570610237021  1.42988097795619
 24   6.05942911891938  1.52854946962852
 25   5.98644978581454  1.62788796317116
 26   5.90705725080172  1.72745128363693
 27   5.82158563031624  1.82683368797519
 28   5.73038963868195  1.92569110970254
 29   5.63381442935297  2.02373343826641
 30   5.53219046686907  2.12072530894453
 31   5.42582037467264  2.21647140750083
 32   5.31497974751507  2.31081066039937
 33   5.19991634012343  2.40360669923171
 34    5.0808522746842  2.49474087480767
 35   4.95798759822618  2.58410743048103
 36   4.83150310005795  2.67160877442303
 37   4.70156395411472  2.75715314414072
 38   4.56832244067634  2.84065235799356
 39   4.43192068216668  2.92202083604551
 40   4.29249280805922   3.0011748830295
 41   4.15016684744433  3.07803250130313
 42   4.00506625599544  3.15251341803192
 43   3.85731116154163  3.22453931138468
 44   3.70701934757941  3.29403413727119
 45   3.55430701209338  3.36092451004745
 46   3.39928933163178  3.42514009634762
 47   3.24208085811251  3.48661399177454
 48   3.08279577416328  3.54528305975373
 49   2.92154803039088  3.60108821730625
 50    2.7584513865505  3.65397465828303
 51   2.59361937696668  3.70389200861307
 52   2.42716521914394  3.75079441173365
 53   2.25920168302569  3.79464054525895
 54   2.08984093683132   3.8353935723676
 55   1.91919438377503  3.87302103335778
 56   1.74737250224535  3.90749468438298
 57   1.57448470021057  3.93879029156732
 58   1.40063919273679  3.96688738952985
 59   1.22594290959527  3.99176901384479
 60   1.05050143803274  4.01342141715152
 61  0.874419003923346  4.03183377853323
 62  0.697798492752326  4.04699791543351
 63    0.5207415102363  4.05890800680997
 64  0.343348480892176   4.0675603354651
 65  0.165718781552066  4.07295305658145
 66  -0.0120490942979717  4.07508599845219
 67  -0.189857346389019  4.07396050027032
 68  -0.367608657480625  4.06957929064672
 69  -0.545205969321456  4.06194640929357
 70  -0.722552251228899  4.05106717305628
 71  -0.899550267801081  4.03694818622295
 72  -1.07610235210478  4.01959739380185
 73  -1.25211019030179  3.99902417525101
 74  -1.42747462308819    3.975239474986
 75  -1.60209546852944  3.94825596489877
 76  -1.77587136988454  3.91808823311286
 77  -1.94869967083084  3.88475299229906
 78   -2.1204763191364  3.84826930010604
 79  -2.29109579829054  3.80865878365151
 80  -2.46045108490978  3.76594585960082
 81  -2.62843362790283  3.72015794116804
 82  -2.79493334342423  3.67132562344584
 83  -2.95983861759073  3.61948283884703
 84  -3.12303630679573  3.56466697517063
 85  -3.28441172324587  3.50691894994067
 86  -3.44384859106545  3.44628323627987
 87  -3.60122895595036  3.38280783775013
 88  -3.75643302887742  3.31654421245345
 89  -3.90933894172481  3.24754715040844
 90  -4.05982238968976  3.17587461293043
 91  -4.20775613225399   3.1015875493925
 92  -4.35300931997017  3.02474971369039
 93  -4.49544661164787   2.9454275171236
 94  -4.63492703675557  2.86368996016453
 95  -4.77130256321518  2.77960872408665
 96   -4.9044163045348  2.69325849122151
 97  -5.03410033711744  2.60471765873405
 98  -5.16017305612914  2.51406956967857
 99  -5.28243604610547  2.42140447803934
100  -5.40067063432742  2.32682267881407
101  -5.51463376771798  2.23043846874176
102  -5.62405487857915  2.13238686331574
103  -5.72863137830275  2.03282982082535
104  -5.82802935402238  1.93196821200077
105  -5.92188189139012  1.83004946923394
106  -6.00979887001517  1.72738211515325
107  -6.09137852519793  1.62434287591857
108  -6.16622854213793  1.52137794971738
109  -6.23400980744882  1.41899474237848
110  -6.29447966368873  1.31769859440162
111  -6.34759076663701   1.2178437514237
112  -6.39361828537808  1.11924106062613
113  -6.43324845926596  1.02047586689942
114   -6.4670892567306 0.919305172776474
115  -6.49602465781295 0.809902356264385
116  -6.53640030414971 0.398892465783997
117  -6.52339597627016 -0.406546142803557
118  -6.78296023536518 -0.864149501003984
119  -7.25742427650558  -1.1183498615932
120   -7.8003377067509  -1.0392902120798
121  -8.24057571079352 -0.550948058019051
122  -8.10233894290247 0.512535342426848
123  -7.51900196104086  1.27199995321921
124   -6.7820396164874   1.8594652767567
125  -5.99878395901542  2.37273442278424
126  -5.20297672982471  2.86611951424831
127    -4.388772936352  3.34082157003785
128  -3.45715667777656  3.75219263520713
129  -2.44979487182163  4.06575654173643
130  -1.43428226886417  4.24999690813513
131  -0.117814638587114  4.87902702515665
132  0.985369351548128  4.83399744565045
133   2.07664338933432  4.67051380440424
134   3.14448910106543  4.39670792788064
135   4.17019269804667  3.99806803857625
136   5.14065858986356  3.48295584196591
137   6.08134603634961  2.91574429066115
138   6.99711364337817  2.30547733550386
139   7.84399547895532    1.597663075858
140   8.51492033891177 0.721602504000954
141   8.55019713984427 -0.375025460884141
142   8.26778549013054 -1.02898597405494
143   7.63891728314763 -1.38131535761113
144   6.91449466774718 -1.35447931013898
145   6.22118591012648 -1.14845118044603
146   5.80982658347047 -1.84548878901416
147   5.67669950720755 -1.93672065818935
148   5.53024875616402 -1.90421859342246
149    5.4043319944486 -1.82430437421166
150   5.29313539260286 -1.72524908197844
151   5.19056192301777  -1.6180278295317
152   5.09277967912174 -1.50767396127539
153   4.99748082942932 -1.39667749999801
154   4.90324285705218 -1.28636442146192
155   4.80914572422221 -1.17750194927617
156   4.71456981280201 -1.07056733713878
157    4.6190912104022 -0.965870940528023
158   4.52242347763146 -0.863616843694231
159   4.42438069932594 -0.763936484589202
160   4.32485095123456 -0.666910133335196
161   4.22377588152619 -0.57258217458573
162   4.12113482965965 -0.480972622497599
163    4.0169327161713 -0.392085845327589
164   3.91119113432506 -0.30591703560258
165   3.80394206311018 -0.222456823439875
166     3.695223624752 -0.141694391841006
167    3.5850773622808 -0.0636194358099088
168   3.47354659302336 0.0117767386818592
169   3.36067549062934 0.0845007246173172
170   3.24650863609639  0.15455693680718
171   3.13109085386511 0.221947798582733
172   3.01446720706255 0.286674084277001
173   2.89668306906167 0.348735340798163
174   2.77778421887925 0.408130335217127
175   2.65781692886426 0.464857492214412
176   2.53682802723086 0.518915297235444
177   2.41486492737499 0.570302649694542
178   2.29197562207966 0.619019156654948
179   2.16820864469199 0.665065361895042
180   2.04361300182968 0.708442908669969
181   1.91823808359342 0.749154637125431
182   1.79213355792423 0.787204619410685
183   1.66534925585461 0.822598137183695
184   1.53793505410968 0.855341607466501
185   1.40994076093289 0.885442463732725
186   1.28141601023422 0.912908999720699
187   1.15241016826284 0.937750183792179
188    1.0229722560557 0.959975451726783
189  0.893150889960074 0.979594485688539
190  0.762994241613425 0.996616986758133
191    0.6325500179182   1.0110524479293
192  0.501865460793529   1.0229099338568
193  0.370987365832317  1.03219787295102
194  0.239962118445475  1.03892386667197
195  0.108835745633886  1.04309452010869
196  -0.0223460188125251  1.04471529716061
197  -0.153537658138728  1.04379040287906
198  -0.284693788088803  1.04032269478922
199  -0.415769066721819  1.03431362429862
200  -0.546718101319641  1.02576320860716
201  -0.677495355096555  1.01467003286127
202  -0.808055056334073   1.0010312816353
203  -0.938351112422099 0.984842798169489
204  -1.06833703108762 0.966099169141403
205  -1.19796585082975 0.944793832091403
206  -1.32719008224961 0.920919201964624
207  -1.45596166155854 0.894466812575211
208  -1.58423191706374 0.865427468154021
209  -1.71195154886246 0.833791399523832
210  -1.83907062132628 0.799548418877862
211  -1.96553856723161 0.762688066644798
212  -2.09130420160518 0.723199743538423
213  -2.21631574252904 0.681072820648318
214  -2.34052083532168 0.636296720369552
215  -2.46386657573195 0.588860961137393
216  -2.58629952711786  0.53875515937664
217  -2.70776572612625 0.485968982853877
218  -2.82821067127222 0.430492050815351
219  -2.94757928922783 0.372313778025286
220  -3.06581587484929 0.311423162285829
221  -3.18286400344207 0.247808518543701
222     -3.29866641817 0.181457167794455
223  -3.41316490293757 0.112355096490792
224  -3.52630016314932 0.0404866132553797
225  -3.63801175589009 -0.0341659540233077
226  -3.74823814055412 -0.111622454079914
227  -3.85691696501225 -0.191904901782976
228  -3.96398576554864 -0.275037118093218
229  -4.06938334493108 -0.36104382290263
230  -4.17305220301697 -0.449948920808825
231  -4.27494252190187 -0.54177265575617
232  -4.37501834050669 -0.636527258956483
233  -4.47326665884406 -0.734210669513042
234  -4.56971028458229 -0.834797886168199
235  -4.66442525792867 -0.93822937236416
236  -4.75756388013939 -1.04439556785838
237  -4.84938513685504  -1.1531152438109
238  -4.94029691127638 -1.26410206912502
239  -5.03092119133416 -1.37690526258348
240  -5.12220865748035 -1.49078981219706
241  -5.21565808955164 -1.60447399994847
242  -5.31373559286561 -1.71553115697577
243  -5.42059086451514 -1.81900680939599
244  -5.54293766537934 -1.90399846164543
245  -5.68783709387798 -1.94223118372824
246  -5.82390284407776 -1.85552183219309
247  -6.25922447687133  -1.1732249242053
248  -6.93826115189618 -1.42089034715374
249  -7.66006338629843 -1.48615146246734
250    -8.305975568051 -1.16338749667263
251   -8.6338440862217 -0.52859221608579
252  -8.68070026479332 0.569485219761218
253  -8.06692745659278  1.48625525718709
254  -7.24567127995017  2.22566262045594
255  -6.33820204971364  2.85643357382541
256  -5.39177932775295  3.42768198464744
257   -4.4070029251313   3.9323526491025
258  -3.37772967412003   4.3390074270082
259  -2.31278440828011  4.63905754293951
260  -1.21872972421833  4.80020421259604
