// Id               X                Y
  1  -0.343762866959313   6.1062263010071
  2  0.716121040280782  6.08213314666271
  3   1.76862301132347  5.89648867605681
  4   2.77615430710142  5.54978735061769
  5    3.7415439934306  5.07559759366937
  6   4.62070753529396  4.47472732868523
  7   5.45383202782603  3.82290430040312
  8   6.27035161786995  3.15593935151332
  9   7.03903698640948  2.44295912570353
 10   7.65826608757379  1.59424417117164
 11   7.85058327249377 0.526381043418372
 12   7.46198688981348 -0.0220223578702038
 13   6.91742445161531 -0.168514610981741
 14   6.43556329975512 0.0394666079066904
 15   6.17509601839914 0.464052810411913
 16   6.23328534086071  1.24713570055003
 17   6.23568628770078  1.60323514556525
 18   6.21257441239801  1.79608928938068
 19   6.18645970415804  1.92672450734179
 20   6.15426728867483  2.04894135283716
 21   6.11637413027323  2.16618565147945
 22   6.07288818637519  2.28012725109937
 23   6.02381590934757  2.39243504703609
 24   5.96885780954165  2.50424203066144
 25   5.90799948359207  2.61624920334054
 26   5.84120340991726  2.72867747502218
 27   5.76865671406475  2.84155524554246
 28   5.69056174613492  2.95474078155951
 29   5.60719199870303  3.06805659043078
 30   5.51880907330521   3.1812989878365
 31   5.42566486537913  3.29427475542876
 32   5.32797940960076  3.40680091361749
 33   5.22594056844277  3.51870866960446
 34   5.11970267469585  3.62983978098218
 35   5.00939011927954  3.74004375768051
 36   4.89510150004979  3.84917442782345
 37   4.77691447645376  3.95708720480083
 38   4.65489046514605  4.06363684793429
 39    4.5290790262412   4.1686758053342
 40   4.39952179588429  4.27205303657643
 41   4.26625595311063  4.37361325182028
 42   4.12931724009296   4.4731964989399
 43   3.98874257750583  4.57063804755655
 44   3.84457231995049  4.66576852938734
 45   3.69685219332367  4.75841430339975
 46   3.54563494910263  4.84839801983504
 47   3.39098176267465  4.93553936030542
 48   3.23296339542657  5.01965593235529
 49   3.07166113422636  5.10056429673836
 50   2.90716751761757  5.17808110472752
 51    2.7395868556382  5.25202432152662
 52   2.56903554954395  5.32221451071906
 53   2.39564221853998  5.38847615401984
 54   2.21954764245796  5.45063898065566
 55   2.04090453165554  5.50853928162047
 56   1.85987713778225  5.56202118585718
 57   1.67664072105378  5.61093787798973
 58   1.49138089103032  5.65515274037202
 59   1.30429283847135  5.69454040566955
 60   1.11558047563406  5.72898770967178
 61  0.925455501494595  5.75839453729716
 62  0.734136406964804  5.78267455760031
 63  0.541847433448953  5.80175584589015
 64  0.348817496226788  5.81558139275664
 65  0.155279082336747  5.82410950088251
 66  -0.0385328689948342  5.82731407103457
 67  -0.232382096669627  5.82518477867454
 68  -0.426032153042304  5.81772714231267
 69  -0.619247539081455  5.80496248417492
 70  -0.811794834322333  5.78692778309879
 71  -1.00344381625761  5.76367541895205
 72  -1.19396856307679  5.73527280741641
 73  -1.38314853253589  5.70180192382778
 74  -1.57076960827407  5.66335871503536
 75  -1.75662510317807  5.62005239903709
 76  -1.94051670754963  5.57200465354022
 77  -2.12225536800727  5.51934869661254
 78  -2.30166208143526  5.46222826520381
 79  -2.47856858706903  5.40079650043337
 80   -2.6528179391606   5.3352147519922
 81  -2.82426494272769  5.26565131756855
 82  -2.99277643570407  5.19228013660571
 83  -3.15823140230254  5.11527946066231
 84  -3.32052090436456  5.03483052492966
 85  -3.47954781955676  4.95111624690413
 86  -3.63522637703226   4.8643199787656
 87  -3.78748148210216  4.77462433975618
 88  -3.93624782107968  4.68221015399743
 89  -4.08146873538722  4.58725551805636
 90   -4.2230948500571  4.48993502159384
 91  -4.36108243596138  4.39041914410508
 92  -4.49539147785367  4.28887385167002
 93  -4.62598341240522  4.18546042042373
 94  -4.75281849330438  4.08033551884078
 95  -4.87585273660088  3.97365158951809
 96  -4.99503440294759  3.86555758302098
 97  -5.11029999122738  3.75620010998078
 98  -5.22156976151199  3.64572508795111
 99  -5.32874289141351  3.53427995485009
100  -5.43169252315968  3.42201647702186
101  -5.53026121353503  3.30909404846994
102  -5.62425769230125  3.19568307277788
103  -5.71345636920104  3.08196742606408
104   -5.7976016281565  2.96814398540406
105  -5.87641945606764  2.85441555762696
106  -5.94963903502883  2.74097101683691
107  -6.01702569913612  2.62794338927227
108   -6.0784228860367  2.51533434317758
109  -6.13379322242452  2.40289520514795
110  -6.18323537671175  2.28997131070215
111  -6.22693366580515  2.17537272585068
112  -6.26499023129573  2.05744562842821
113  -6.29718699243229  1.93444481861076
114  -6.32317499107227   1.8029203531204
115  -6.34580699974005  1.60780816607863
116  -6.34136704142198  1.25151160595527
117  -6.27527268649712 0.468940204628718
118  -6.52558757837229 0.0395827350832017
119  -6.99833733356208 -0.18177381794242
120  -7.53827501687668 -0.0592937886033965
121  -7.94450734124112 0.467802034212294
122   -7.7808027601551  1.53058922540118
123  -7.22517535944675  2.33133004549675
124  -6.53652354199584  2.99135895259022
125  -5.80923740864489  3.60129611822234
126  -5.06912594767056  4.20309758726661
127  -4.29922121043106  4.79361408854056
128  -3.38978833730486  5.32672438018164
129   -2.4314707645914  5.73269028800418
130  -1.39370756149235  5.96677437182323
131  -0.0223126324139926  6.59939538307823
132   1.09666957141068  6.53734417955743
133   2.19232130615997  6.30522508624788
134   3.24035282889044  5.91459316990235
135   4.23034986058449  5.39708965782501
136   5.14269171991428  4.75703885150258
137   6.01351540163474  4.06266320413319
138   6.85544517639996  3.33230198101064
139   7.63743244801933  2.53538992571184
140   8.23947289194058   1.5952064618772
141   8.27353770623591  0.48532560043467
142   7.95354094491202 -0.149458552751668
143   7.31954684047817 -0.495204444559468
144   6.58911324559121 -0.458930501908388
145   5.87634701888593 -0.274995018069501
146   5.23645624170803 -0.741657174722134
147   5.08702422322543 -0.75733517055061
148   4.94669551578983 -0.729923407399802
149   4.81656592152907 -0.670460590034842
150   4.69956925757608 -0.589377526740354
151   4.59467953097075 -0.493787170330044
152   4.49987237211237 -0.388602634643921
153   4.41283090632878 -0.277393233651147
154   4.33127908579105 -0.162763127083491
155   4.25319781256509 -0.0465726792605662
156   4.17693166528069 0.0698781709678248
157   4.10120595977138 0.185695075721369
158   4.02508899606252 0.300270089201321
159   3.94793206317694 0.413194990856529
160   3.86930611904461 0.524200232889612
161   3.78894491994702 0.633111903979969
162   3.70669796312159 0.739821123644891
163    3.6224936710457 0.844261948404069
164   3.53631176223145 0.946395292618677
165   3.44816328858179  1.04619722714592
166   3.35807675840626  1.14365056693144
167   3.26608891818315  1.23873897548892
168   3.17223898830411  1.33144300795569
169   3.07656538234281    1.421737637934
170   2.97910415354347  1.50959090193998
171   2.87988859535688  1.59496336530695
172    2.7789495725379  1.67780817255449
173    2.6763162778996  1.75807149634768
174   2.57201720136438   1.8356932430652
175   2.46608116699826  1.91060790984815
176   2.35853834457914  1.98274551801366
177   2.24942117876424  2.05203257131998
178   2.13876520435882  2.11839300543754
179   2.02660973327148  2.18174910794882
180   1.91299840969603  2.24202239716893
181   1.79797963666297  2.29913445393056
182   1.68160688074004  2.35300770401284
183   1.56393886338092  2.40356615080388
184   1.44503964798581  2.45073605862858
185    1.3249786316798  2.49444658737951
186   1.20383045047868  2.53463037897156
187   1.08167480610151  2.57122409591338
188  0.958596222307746  2.60416891207933
189  0.834683738318533  2.63341095564027
190  0.710030546622634  2.65890170408829
191  0.584733582244197  2.68059833135798
192  0.458893070337417   2.6984640071734
193  0.332612038753074  2.71246814889946
194  0.205995801987329   2.7225866263121
195  0.0791514226783153  2.72880191979496
196  -0.0478128434245171  2.73110323250295
197  -0.174788113310293  2.72948655699876
198  -0.301665447840036  2.72395469677327
199  -0.428336422737615  2.71451724291897
200  -0.554693694048637  2.70119050605991
201  -0.680631552636508  2.68399740347553
202  -0.806046462171551  2.66296730121314
203  -0.930837574895602  2.63813581088244
204  -1.05490721922755  2.60954454077501
205  -1.17816135303203  2.57724080095092
206  -1.30050997611789  2.54127726197119
207  -1.42186749527136  2.50171156700475
208  -1.54215303485651  2.45860589707144
209  -1.66129068571951  2.41202648916484
210  -1.77920968478998  2.36204310690341
211  -1.89584451736507  2.30872846317541
212  -2.01113493358472  2.25215759399164
213  -2.12502587009576  2.19240718250548
214   -2.2374672674575  2.12955483203121
215  -2.34841377366339  2.06367828709968
216  -2.45782432458391  1.99485460244805
217  -2.56566159370384  1.92315926177921
218  -2.67189130699736  1.84866525170729
219  -2.77648142521173  1.77144210222112
220  -2.87940120661367  1.69155491405808
221  -2.98062018019032  1.60906340647581
222  -3.08010708464895   1.5240210369513
223  -3.17782886509787  1.43647426816533
224  -3.27374987035818  1.34646208791677
225  -3.36783146337323  1.25401592475876
226  -3.46003234959138  1.15916014629068
227  -3.55031004818165  1.06191337823447
228   -3.6386240827817 0.962290941286929
229  -3.72494165467707 0.860308771817918
230  -3.80924677991238 0.755989278905329
231  -3.89155411132126 0.649369710486049
232  -3.97192889701111 0.540513788836003
233  -4.05051468585522 0.429527688450899
234  -4.12757035361462 0.316581958924424
235   -4.2035175434633 0.201941872118389
236  -4.27899822678891 0.0860100360671844
237  -4.35493899950042 -0.0306130444127018
238  -4.43261274094383 -0.147042990038463
239  -4.51367828221704 -0.261992591518463
240  -4.60016635687949 -0.373616954004725
241  -4.69437501359301 -0.479328488000426
242  -4.79865598923338 -0.57557453275839
243  -4.91508278339724 -0.657458970514977
244  -5.04475310084415 -0.717885847624383
245  -5.18479867134151 -0.746404292513139
246  -5.33434160070894 -0.731943326549791
247  -5.97807477915516 -0.270758850321728
248  -6.69159866839854 -0.45796757058337
249  -7.42490200711758 -0.483658771299275
250  -8.05058719692417 -0.115068986182457
251  -8.36768459047728 0.527233289970901
252  -8.35002963601474  1.64179740797689
253   -7.7547151276707  2.58694268027981
254  -6.97351038484803  3.38654241271668
255  -6.11806775279659  4.10663762997709
256  -5.22908337999321  4.78577893235835
257  -4.29301450795266  5.40105342552487
258  -3.30038615146155  5.92326481744798
259  -2.24140903509885    6.294982004148
260  -1.13836811433873  6.50154812464084
