// Id               X                Y
  1  -0.292017783086717  4.97686605871304
  2  0.796577896454708  4.95336227698999
  3   1.84750316723957  4.79563408466067
  4    2.8702526265354  4.49562890161799
  5   3.75997231998871  4.15254117774667
  6   4.65946302829627  3.80998618798188
  7   5.57589108231165  3.48365216661357
  8   6.48344336031743  3.16581961084194
  9   7.36365735863583  2.82345399100516
 10   8.18894245878136  2.40498568692993
 11   8.92950405683662  1.85838330088724
 12   9.25632440298839  1.45242006077174
 13    9.4627772954957 0.955521050934609
 14   9.43097554784711 0.378984368560326
 15   9.08891116685448 -0.0304436819609674
 16   8.40217183373842 -0.0665039677609577
 17   7.85027028837944 0.197631263186372
 18    7.4793095475749  0.49868260357499
 19   7.20886042260346 0.772493831091429
 20   7.01743436324394 0.986045852820105
 21    6.8964105722908  1.12609551953529
 22   6.80562871448884  1.23262639843468
 23   6.72755230722381  1.32474003608153
 24   6.65488994702902  1.41053438147375
 25   6.58395114029325  1.49408921889124
 26   6.51265194472683  1.57763101080089
 27   6.43972811476122  1.66240624181638
 28   6.36436491050031   1.7490998938414
 29   6.28600384989582  1.83805778155745
 30   6.20423483770783  1.92941314095456
 31   6.11873319987274   2.0231625474949
 32   6.02922182310226  2.11921320735038
 33   5.93544813058695  2.21741317700268
 34   5.83717024518398   2.3175708196944
 35   5.73414916674947  2.41946712974326
 36   5.62614513661968  2.52286310442788
 37    5.5129171456893  2.62750356138265
 38   5.39422500307597  2.73311837168585
 39   5.26983365200016  2.83942185051284
 40     5.139519562348  2.94611093498126
 41   5.00307907095459  3.05286273694003
 42   4.86033849160089  3.15933205897344
 43   4.71116569334215  3.26514947193867
 44   4.55548265745927  3.36992055034947
 45   4.39327815425504  3.47322690807193
 46   4.22461907723389  3.57462975143972
 47    4.0496586763892  3.67367640943786
 48   3.86864037601037  3.76990962006579
 49   3.68189536871264  3.86287932371781
 50   3.48983248424044    3.952156237185
 51   3.29292107875157  4.03734535414807
 52   3.09166781728591  4.11809787533246
 53   2.88658716993056  4.19412084871237
 54   2.67817567414205  4.26518054653754
 55   2.46689443446719  4.33109965147508
 56   2.25316321486134  4.39174943033662
 57   2.03736328780125   4.4470400248415
 58   1.81984151047446  4.49691208556283
 59   1.60090994793491  4.54133086084579
 60   1.38084578668783  4.58028094915049
 61   1.15988942023834  4.61376189884539
 62  0.938245325644858  4.64178365551968
 63   0.71608598839237  4.66436218575041
 64  0.493556414238469   4.6815158254957
 65  0.270779705116168  4.69326230656482
 66  0.0478635303634503  4.69961654180521
 67  -0.175094251513292  4.70058922695837
 68  -0.397999626355889  4.69618609985197
 69  -0.620756266961638  4.68640787749863
 70  -0.843260013381524  4.67125083106351
 71   -1.0653932570752  4.65070798396388
 72  -1.28701947449384  4.62477095728651
 73  -1.50797835285198  4.59343243209648
 74   -1.7280810581584  4.55668929469262
 75  -1.94710594872373  4.51454649107924
 76  -2.16479492201668  4.46702160735709
 77  -2.38085018650097  4.41415027752764
 78  -2.59493209732227  4.35599233949553
 79  -2.80665828944201  4.29263865560821
 80  -3.01560488752632  4.22421826211056
 81  -3.22131099753351  4.15090513636737
 82  -3.42328747550098  4.07292359124433
 83  -3.62103084908565  3.99055098790856
 84  -3.81404234907475  3.90411649478804
 85  -4.00185013120069  3.81399536888802
 86  -4.18403186021014  3.72059904743605
 87  -4.36023399465662   3.6243624736952
 88  -4.53018490840106  3.52573062129049
 89  -4.69370068072974  3.42514602903991
 90  -4.85068395506211  3.32303862592499
 91  -5.00111738043124  3.21981841640417
 92    -5.145053596087  3.11587097957796
 93  -5.28260355780495  3.01155538563786
 94  -5.41392462436289  2.90720395787236
 95  -5.53920941949421  2.80312323858135
 96   -5.6586761427296  2.69959550432453
 97  -5.77256076469792  2.59688017390288
 98  -5.88111141478032  2.49521443082835
 99  -5.98458524671667  2.39481231757831
100  -6.08324815827206  2.29586141951066
101  -6.17737797361581  2.19851598839384
102  -6.26727213545393  2.10288486391462
103  -6.35326173314212   2.0090116682885
104  -6.43573505613162   1.9168431313944
105  -6.51517637549428  1.82617843381157
106  -6.59223035422205  1.73658666865352
107  -6.66781213008322  1.64726796472743
108  -6.74330388173866  1.55680846764293
109  -6.82092976315744  1.46271873573393
110  -6.90454576823264  1.36047498075089
111  -7.00158222311295  1.24120840884033
112  -7.12873264330887  1.08518108149015
113  -7.31796912172942 0.857592324184999
114  -7.57966196318395 0.565216043663879
115  -7.93665024105622 0.235076220318751
116  -8.47122834972374 -0.0783235864331729
117  -9.16269640694061 -0.115573507523707
118  -9.54820591331485 0.247607471349919
119  -9.65152810383856 0.796458014150116
120  -9.50971186299167  1.30923108593716
121  -9.22950707019599  1.74334605335806
122  -8.53419104919574  2.34051192459782
123  -7.73244728849188  2.79128501836376
124   -6.8662618641801  3.14799673161021
125  -5.96984113045069  3.46565308009624
126  -5.05932503501086  3.78170003876695
127  -4.14627286119649  4.10832068165645
128  -3.23404138286633  4.45063491014582
129  -2.34059682274784  4.71143745637422
130  -1.31506272352994  4.86288020644356
131  -0.313306685679956   5.5589234240422
132  0.717438744014795  5.52818051550717
133   1.76240329172753  5.36971188904645
134   2.80006766200471  5.09913990832558
135   3.81660508480771  4.76405674466052
136   4.81507609421239  4.40880860815231
137   5.80446282640706  4.05895010624189
138   6.79435953420015  3.70114574961696
139   7.77576867054174   3.2873545890989
140   8.70769117364209  2.73772664168591
141   9.47546443237849  1.96345011285097
142   9.78409718210297  1.35377244400351
143   9.91430261369833 0.689251036650585
144   9.85760790571059 0.040653722232679
145   9.67513375349723 -0.488587939233718
146   9.32489003901231  -1.0492994427871
147   9.11044727201439  -1.2762601603569
148   8.87098377218284  -1.4722027792925
149   8.62098987523033 -1.62978623589017
150   8.36552484356949 -1.75217458506729
151   8.10194813667495  -1.8446524763801
152   7.83359104942004   -1.908431353529
153    7.5639096336172 -1.94504593921096
154   7.29570000662531 -1.95650812737415
155   7.03126132107728 -1.94511214964782
156   6.77239591600155 -1.91332289042711
157   6.52042047566769 -1.86367199766073
158   6.27620579856674 -1.79866698533384
159   6.04023571206442 -1.72072011972155
160   5.81267448510228 -1.63209849915314
161   5.59343489714679  -1.5348933059479
162   5.38224193611374 -1.43100469422398
163   5.17868929141853 -1.32213843128988
164   4.98228735953221 -1.20981068586353
165   4.79250249467674 -1.09535791275088
166   4.60878784420759 -0.979949425679632
167   4.43060642460313 -0.864600870388888
168   4.25744721357077 -0.750187363525525
169   4.08883503973441 -0.637455524152718
170   3.92433499520563 -0.527034013697305
171   3.76355205084673 -0.419442498927631
172   3.60612650715978 -0.315099249694572
173   3.45172601813943 -0.214327672008656
174   3.30003478312905 -0.11736259548619
175   3.15074147095388 -0.0243562852836752
176   3.00352620172786 0.0646128378857265
177    2.8580514300742 0.149532807507665
178   2.71395160876991 0.230440817842785
179   2.57083675885776 0.307418367110785
180   2.42828726658244 0.380555499158634
181   2.28588135744607 0.449963193872762
182   2.14318853234068 0.515707332271552
183   1.99982661758662  0.57786115190267
184   1.85544133805758 0.636402885403861
185   1.70976923064586 0.691326922851756
186   1.56258836704547  0.74251658289623
187   1.41376717845121 0.789893999579731
188   1.26320917637135 0.833285193339943
189   1.11089603809808 0.872563709656332
190  0.956850348612634 0.907534566581808
191  0.801164179252246 0.938047347360303
192  0.643976070931706 0.963917505865116
193  0.485479266655977 0.985003042695713
194  0.325905649377322  1.00116004997974
195  0.165522952884173  1.01228766153861
196  0.00462203956096196  1.01830538496576
197  -0.156490455430096   1.0191763547521
198  -0.31750236751173  1.01489516054796
199  -0.478105540844376  1.00549802366413
200  -0.638004803999822 0.991053956514518
201  -0.796927310078908 0.971667337371054
202  -0.954630770760319 0.947468638631583
203  -1.11091173131813 0.918612828208129
204  -1.26561216036049 0.885268104428057
205  -1.41862666692126 0.847612554795055
206  -1.56990672957545   0.8058205787226
207  -1.71946668232751 0.760059741898092
208  -1.86738514392191 0.710475619282305
209  -2.01380897129694 0.657190323126134
210  -2.15895075045366 0.600288236387951
211  -2.30308827629277 0.539817798408194
212  -2.44655543145847  0.47578306747676
213  -2.58973355535624  0.40815151232727
214  -2.73303444233134 0.336856868025647
215  -2.87688459460199  0.26181485606661
216  -3.02170701607075 0.182937123569264
217  -3.16790846730738 0.100151061266446
218  -3.31587136742768 0.0134169681216462
219  -3.46595314131929 -0.0772552010589592
220  -3.61849113940198 -0.171792549634882
221  -3.77381205689809 -0.270048269757442
222  -3.93224342505948 -0.371792984786804
223  -4.09412541880264 -0.476707347518389
224  -4.25982134986772 -0.584375177588244
225  -4.42972565897171 -0.694276351381112
226  -4.60426845574052 -0.805778878110506
227  -4.78391583007566 -0.918129768103886
228  -4.96916521407617  -1.0304445325369
229  -5.16053506761572 -1.14169542551812
230  -5.35854812488626 -1.25069887420667
231  -5.56370741679336 -1.35610295505701
232  -5.77646433026185 -1.45637627285166
233  -5.99717814927176 -1.54980018345413
234  -6.22606693406887 -1.63446694498406
235  -6.46315034669913 -1.70828701787094
236  -6.70818625364292 -1.76900922167499
237   -6.9606047555239 -1.81425753897971
238  -7.21944571285058  -1.8415876041356
239  -7.48330816066284 -1.84856374421488
240  -7.75031814997111 -1.83285396037764
241  -8.01809668957629 -1.79234240816535
242   -8.2836373331344 -1.72529863861734
243  -8.54476709500543 -1.62998986793376
244  -8.80496933795566 -1.50127888369482
245  -9.06051483814627 -1.33491819008942
246  -9.29665058896905 -1.13580619299652
247  -9.70555018658216 -0.627092280168376
248  -9.94863032245263 -0.127898361352308
249  -10.0805646550886 0.501671549384992
250  -10.0253438663725  1.17336208364513
251  -9.77849053559975  1.80850352226863
252   -9.0733641939727  2.63779720622162
253  -8.17011828969821   3.2312367275126
254  -7.20287668823648   3.6676519583817
255  -6.22699820264709  4.02885604308088
256  -5.27186523893873  4.36411207460154
257  -4.31491716927089  4.70057842760426
258  -3.32721541789679   5.0271031225841
259  -2.31846090075442  5.29577778658158
260  -1.34033136928789  5.47210530294755
