// Id               X                Y
  1  -0.0447904115520474 0.163396815586081
  2  0.874259921549361 0.224497591723153
  3   1.77116843819899 0.421483429488558
  4   2.63124423071785 0.725508957969936
  5   3.45673103375708  1.09455581514395
  6   4.26490792289051  1.47968819215769
  7   5.08275104734909  1.83201157443347
  8   5.94114523789988  2.04724605772074
  9   6.81613619983656  1.98336049015254
 10   7.56722959469923  1.54210720638806
 11   8.00538213048612 0.783048122956535
 12   8.06516553476627 0.302025329902467
 13    7.9876360702425 -0.192673328901377
 14   7.76501413350426 -0.661537056269271
 15   7.23148060524954  -1.1429484725407
 16   7.65612806762605 -0.331205162230392
 17   7.64008926809775 -0.0359411122378042
 18   7.49766371672653 0.169688869978658
 19   7.29316260667702 0.307529526034792
 20   7.06929676896528 0.395122355764575
 21   6.84821093533989 0.451736767059254
 22    6.6417738449775 0.487897414412986
 23   6.45641390465014 0.509623361395632
 24   6.27965205526442 0.521944073117904
 25   6.10786047925022 0.526523658082212
 26   5.93970126949576 0.524191749953847
 27   5.77459129088753  0.51557751553426
 28   5.61294395275149 0.501445733611113
 29   5.45478050842976 0.482783075339584
 30   5.29872231277295 0.460541824812807
 31   5.14454575849742 0.435751882150685
 32   4.99202131368649 0.409321056506761
 33   4.84087443909258 0.381973293430345
 34   4.69082885283145 0.354250349729271
 35   4.54164001266212 0.326541171026834
 36   4.39310843653446  0.29911733400305
 37   4.24507938391499 0.272164950271937
 38   4.09743625913201 0.245810177127792
 39   3.95009240882328 0.220138385907542
 40    3.8029835683916 0.195208000108355
 41   3.65606174356855 0.171060168791578
 42   3.50929059096337  0.14772531434199
 43   3.36264207780024 0.125227400042162
 44   3.21609413405548 0.103586577148888
 45   3.06962903324789 0.0828207140711844
 46   2.92323228888081 0.0629461835365913
 47   2.77689190545323 0.0439781833898716
 48   2.63059786696872 0.025930788203083
 49   2.48434178034648 0.00881686810718145
 50   2.33811661709439 -0.00735203510892834
 51    2.1919165156669 -0.0225658192145071
 52   2.04573662061895 -0.0368158897792289
 53   1.89957294423699 -0.0500951727032569
 54   1.75342224277229 -0.0623980699367435
 55   1.60728190352289 -0.0737203644476308
 56   1.46114984144931 -0.0840590843685044
 57   1.31502440527565 -0.0934123378153401
 58   1.16890429352081 -0.101779129894462
 59   1.02278848092312 -0.109159172489945
 60  0.876676155479763 -0.115552695990088
 61  0.730566665968193 -0.120960270480803
 62  0.584459479440382 -0.125382642317537
 63  0.438354147838109 -0.128820590518266
 64   0.29225028259134 -0.131274806170273
 65  0.146147535840552 -0.132745797038734
 66  4.55867633709348e-05 -0.133233818797929
 67  -0.146055868622376 -0.132738833744278
 68  -0.292157125872808 -0.131260497445976
 69  -0.438258480473934 -0.128798173477776
 70  -0.584360237864535 -0.125350976116943
 71  -0.730462726821183 -0.120917840570969
 72  -0.876566317835831 -0.115497619904991
 73  -1.02267144800885 -0.109089207278416
 74  -1.16877865382028 -0.101691681338187
 75  -1.31488861292115 -0.0933044716192877
 76  -1.46100219580015 -0.0839275395643249
 77  -1.60712052783719 -0.0735615693197514
 78  -1.75324506187709 -0.0622081608682497
 79  -1.89937766109744 -0.0498700164461164
 80  -2.04552069169415 -0.036551109779555
 81   -2.1916771249105 -0.0222568267607358
 82  -2.33785064839984 -0.00699406620131917
 83  -2.48404578813215 0.00922870917593855
 84  -2.63026804441713 0.0264014775671276
 85  -2.77652404962211 0.0445127178127683
 86  -2.92282176143504 0.0635495117371385
 87  -3.06917071484002 0.0834976597024627
 88  -3.21558236929935 0.104341755477264
 89   -3.3620706061781 0.126065132756882
 90  -3.50865245665368 0.148649550475785
 91  -3.65534917375714  0.17207442482469
 92  -3.80218780470316 0.196315339454913
 93  -3.94920346960641 0.221341467816032
 94  -4.09644260116873 0.247111418505363
 95  -4.24396742129891 0.273566862347059
 96  -4.39186186497485 0.300623120640751
 97   -4.5402388877069 0.328155708189469
 98  -4.68924839890427 0.355981704893686
 99  -4.83908365569782 0.383834979759971
100  -4.98998163625234 0.411335214114674
101  -5.14221031544579 0.437953444367592
102  -5.29603641779962 0.462983271369359
103  -5.45168265474286   0.4855383762805
104  -5.60935655158696 0.504610597853587
105  -5.77028592081979 0.519261945838284
106  -5.93464796239527 0.528542165793118
107  -6.10189492631289 0.531699868757315
108  -6.27252863935154 0.528147561640959
109   -6.4477039483384 0.517125687916862
110  -6.63030749105621 0.497159499673013
111  -6.83169025431514 0.463740582521398
112  -7.05099303320415 0.409810305950907
113  -7.27414628778574  0.32474944549178
114   -7.4783740030263 0.189228719300885
115  -7.62103827884416 -0.0142377742740341
116  -7.63834823295725 -0.309414245305299
117   -7.2246759356825 -1.12634528041276
118  -7.78951182068881 -0.681164164625713
119  -8.02599740372854 -0.207147359531539
120  -8.10646514449612 0.292286589145137
121  -8.04796093022175 0.775908713081052
122  -7.61634802652667  1.54010239150875
123  -6.87197808188777  1.99286022143074
124  -5.99841778275815   2.0678385778774
125  -5.13999197817808  1.85881164419562
126  -4.32384795821045  1.50827404957147
127  -3.51949614348467  1.12191887611313
128   -2.6996643018179 0.749134754604089
129  -1.84620071706393 0.439129006467125
130  -0.955780064414006 0.234539944064678
131  -0.0343709930889721 0.780420822354976
132   0.84747360554437  0.84489020737111
133    1.7132483840879  1.04051500367502
134   2.55595642789554   1.3429119745372
135   3.38570205963883  1.71265987443794
136   4.23444906740447  2.09755867498818
137   5.20468454786804  2.43845099102085
138    6.2742683965364  2.56872831141754
139   7.34062245338742  2.30933470677972
140   8.16652150656214  1.56843217223625
141   8.45191817878348 0.489141970945589
142    8.3001536237361 -0.213432154160692
143   7.91907791954008 -0.839057082588826
144   7.37272834052892 -1.34911204214621
145   6.68634322113233  -1.7889943789166
146   5.89206949404342 -2.18638079376542
147   5.75058273145762 -2.24238092716293
148   5.71004741413011 -2.25760226083191
149   5.66898283529548 -2.27268277036245
150   5.62285736167331 -2.28925362488511
151   5.57041405033546 -2.30766126764536
152   5.51276009547807 -2.32740841011123
153   5.45051693879229 -2.34819197563833
154   5.38419679134228 -2.36976765965975
155   5.31372278760239 -2.39209443612021
156   5.23862470468984 -2.41525010292229
157   5.15771985373887 -2.43950953331763
158   5.06529933286947 -2.46640860573286
159   4.95748613659531 -2.49677272790431
160   4.84398710953794 -2.52765567123185
161   4.72662626463248 -2.55852011022019
162   4.60630928989678 -2.58912264911954
163   4.48364125186264 -2.61931518533039
164   4.35905941810007 -2.64899681403147
165   4.23288593905591 -2.67809402370186
166   4.10535979303847 -2.70655008612439
167   3.97665978150163  -2.7343188301919
168   3.84692158957363 -2.76136095012055
169   3.71625028053383 -2.78764186280273
170   3.58472926960878 -2.81313050648502
171   3.45242666870931 -2.83779869369134
172   3.31939972797399 -2.86162077540793
173   3.18569793014179 -2.88457346865984
174   3.05136514423126 -2.90663576091178
175   2.91644112671922 -2.92778884292371
176   2.78096257106397 -2.94801604463499
177   2.64496384453639 -2.96730276191108
178   2.50847750842774 -2.98563636932874
179    2.3715346881918  -3.0030061180407
180   2.23416533974186 -3.01940301966429
181   2.09639844402445 -3.03481971799325
182   1.95826215216317 -3.04925035066259
183   1.81978389659721 -3.06269040299509
184   1.68099047884819 -3.07513655627293
185   1.54190814122554 -3.08658653267908
186   1.40256262749373 -3.09703893916236
187   1.26297923596157 -3.10649311249883
188   1.12318286739181  -3.1149489678387
189  0.983198069405982  -3.1224068530287
190  0.843049078564042 -3.12886741097314
191  0.702759860951895 -3.13433145223062
192  0.562354151862549 -3.13879983993402
193  0.421855494973781 -3.14227338896365
194  0.281287281287042 -3.14475278110041
195  0.140672787986022 -3.14623849763902
196  3.52172921454234e-05 -3.14673077065712
197  -0.140602264665342 -3.14622955382167
198  -0.281216488986726  -3.1447345132763
199  -0.421784245188897 -3.14224503880238
200  -0.562282242485442 -3.13876027509011
201  -0.702687071184808 -3.13427917260414
202  -0.842975164193705 -3.12880055718942
203  -0.983122758554874 -3.12232321724588
204  -1.12310585686835 -3.11484600701377
205   -1.2629001883398 -3.10636796426081
206  -1.40248116906117 -3.09688844045437
207  -1.54182386094622 -3.08640724133942
208  -1.68090292849451 -3.07492477572652
209  -1.81969259221105 -3.06244221022192
210  -1.95816657701304 -3.04896162759702
211   -2.0962980532345   -3.034486186488
212  -2.23405956678489 -3.01902028012641
213  -2.37142295346947 -3.00256969181369
214  -2.50835923021983 -2.98514174485896
215  -2.64483845270648 -2.96674544469877
216  -2.78082952408873  -2.9473916109353
217  -2.91629993290473 -2.92709299713151
218  -3.05121538845377 -2.90586439653698
219   -3.1855393081975 -2.88372273276757
220  -3.31923209179201 -2.86068713633984
221   -3.4522500875116 -2.83677901174952
222  -3.58454411495857 -2.81202210695458
223  -3.71605734764777 -2.78644261003781
224  -3.84672227402675 -2.76006932012352
225   -3.9764563403974 -2.73293397668973
226  -4.10515573357183 -2.70507189083466
227  -4.23268659517641 -2.67652311416803
228  -4.35887279637134 -2.64733452048014
229  -4.48347924910795 -2.61756338887078
230  -4.60618941783898 -2.58728344101156
231  -4.72657414698328 -2.55659511012434
232  -4.84404076503768 -2.52564459879526
233  -4.95770781111404  -2.4946694205164
234  -5.06584501098463 -2.46417964363843
235  -5.15944219585606 -2.43691263466918
236  -5.24073831608873 -2.41251595485036
237  -5.31613480996912 -2.38925473254298
238  -5.38685695018992 -2.36684169903104
239  -5.45337511829002 -2.34519937855396
240  -5.51578054333145 -2.32436412703967
241  -5.57357827989489 -2.30457381667799
242  -5.62609232995631 -2.28614921249856
243  -5.67227076217796 -2.26956876083241
244  -5.71336747979776 -2.25448538810709
245  -5.75394786299953 -2.23925759959858
246  -5.89564846542006 -2.18321020862624
247  -6.69094654251174 -1.78632773040494
248  -7.37928224410966 -1.35356075123453
249  -7.93385894642111 -0.849528003971336
250  -8.32494370354627 -0.227393955506702
251  -8.48692978432897 0.475393522605693
252  -8.21607236351582  1.56046624650638
253  -7.39965874879472  2.31367170284522
254  -6.33603871450329  2.58612633166062
255  -5.26503382275089  2.46436317499796
256  -4.29296633174807  2.12590831063434
257  -3.44496026179248   1.7395884203101
258  -2.61743469382518   1.3657022169862
259  -1.77747287289868  1.05705399716375
260  -0.913876827529813 0.853556925202953
