// Id               X                Y
  1  -0.0714119575710208 -0.0434024299529809
  2  0.868157525249073 -0.0561132611612915
  3   1.78880452261249 0.0771092937904898
  4   2.66658820423709 0.350781932354716
  5   3.48948399509257 0.736060777107309
  6    4.2654377011357   1.1879364859332
  7   5.02268406381535  1.65137809814749
  8   5.79811385282652  2.06558753136509
  9   6.62070635737057  2.36332042070728
 10   7.48500323871603  2.43479426842921
 11   8.32746414803497  2.20389292423078
 12   8.69309348297931  1.90100863970345
 13    8.9290810782032  1.45829231124511
 14   8.89578975868656 0.937932613461673
 15   8.54384703220624 0.589394952086402
 16   7.76084689167484 0.774898641864478
 17   7.46558666657695 0.828479534820259
 18   7.18384323200625 0.820460986040444
 19   6.92231522999065 0.760777391663415
 20   6.68806292092308 0.668203638030491
 21   6.51997031210478 0.582438402724811
 22   6.38206483487825  0.50254037145922
 23   6.25118655680898 0.421363835399261
 24   6.12182201281576 0.338801670837859
 25    5.9910321964882 0.255656112532256
 26   5.85747387615743 0.173335657606428
 27   5.72085457510205 0.0934678225847463
 28   5.58142042652379 0.0174950969117133
 29   5.43957730179483 -0.0535449934522972
 30   5.29571043193523 -0.119029770060248
 31   5.15013992275139 -0.178658392754826
 32   5.00312989270889 -0.232348391564389
 33   4.85490778427507 -0.280157022632582
 34     4.705679598119 -0.322230185562531
 35   4.55563843687303 -0.358771906422636
 36   4.40496692297061 -0.390026925987341
 37   4.25383484269655 -0.416270684622044
 38   4.10239423250669 -0.437802759081443
 39   3.95077517067597 -0.45494134903875
 40   3.79908536619118 -0.468017860644423
 41   3.64741433537621 -0.477371738464347
 42    3.4958400069194 -0.48334602854563
 43   3.34443455730584 -0.486283803661602
 44    3.1932676040142 -0.486525161811791
 45   3.04240682316331 -0.484404441863579
 46   2.89191707333464 -0.480247504333086
 47   2.74185906165752 -0.474369137012206
 48   2.59228810905497 -0.467070732194316
 49   2.44325317104732 -0.458638364291218
 50    2.2947960913045 -0.449341337863046
 51   2.14695103803968 -0.439431218482812
 52   1.99974409806307 -0.429141315830799
 53   1.85319302022292 -0.418686559466343
 54   1.70730709089874 -0.408263689663118
 55   1.56208709616963 -0.398051676764669
 56   1.41752529736628 -0.388212282587839
 57    1.2736053404088 -0.378890686634595
 58   1.13030204870551 -0.370216117086426
 59   0.98758111251119 -0.362302448240102
 60  0.845398764296918 -0.355248746852847
 61  0.703701589175911 -0.349139764628811
 62   0.56242663595942 -0.344046380194841
 63  0.421501960749836 -0.340025992458082
 64  0.280847665428278 -0.337122861979578
 65  0.140377414425268 -0.335368392072317
 66  3.48714969449544e-07 -0.334781339232278
 67     -0.14037672299 -0.335367943551257
 68  -0.280846992350283 -0.337121972905258
 69  -0.421501319499741 -0.340024678776346
 70  -0.562426041814267 -0.344044665842156
 71  -0.703701059856021 -0.349137681531575
 72  -0.845398320516375 -0.355246334890679
 73  -0.987580778423111 -0.36229975514438
 74  -1.13030185223282 -0.370213198240958
 75  -1.27360531346416 -0.37888760474295
 76  -1.41752547597494 -0.388209107171217
 77  -1.56208752051176 -0.398048483455149
 78   -1.7073078052812 -0.408260559259807
 79  -1.85319407297613 -0.418683576727336
 80  -1.99974554134025 -0.429138567983744
 81  -2.14695292748044 -0.439428793453283
 82  -2.29479848551568 -0.449339322244445
 83   -2.4432561308489 -0.45863684111238
 84  -2.59229169644144 -0.467069778580227
 85  -2.74186333842783 -0.474368821875759
 86  -2.89192209935576 -0.480247886277784
 87  -3.04241265424664 -0.484405567512304
 88  -3.19327428942183 -0.486527064799209
 89  -3.34444213696333 -0.486286504528188
 90  -3.49584850847572 -0.48334953574021
 91  -3.64742377127174 -0.477376050595213
 92  -3.79909573079314  -0.4680229700291
 93   -3.9507864373838 -0.454947246517206
 94  -4.10240635092139 -0.437809439961336
 95  -4.25384773703725 -0.416278155365666
 96  -4.40498049467278 -0.390035210609407
 97  -4.55565257486239 -0.358781050672754
 98   -4.7056941970955 -0.322240256723077
 99  -4.85492276413862 -0.280168104515661
100   -5.0031452043248 -0.232360578652698
101  -5.15015552238143 -0.178671793033371
102  -5.29572621367787 -0.119044529352184
103  -5.43959299411892 -0.0535613507567635
104    -5.581435479077 0.0174767258204506
105  -5.72086807812213 0.0934467569548947
106  -5.85748456367195 0.173310909328947
107  -5.99103856863723 0.255626452119863
108  -6.12182252816967 0.338765807816506
109  -6.25117974561282 0.421320610877856
110  -6.38204920695138 0.502488842250768
111  -6.51994383938878 0.582377689320206
112  -6.68796083799815 0.668103458884609
113  -6.92219287664998 0.760675087390467
114  -7.18369842353965 0.820362471429352
115  -7.46541978555991 0.828392428529397
116  -7.76066434354397 0.774830444816562
117  -8.54364596422297 0.589377015407233
118   -8.8954916470368 0.937830478081313
119  -8.92901212580396  1.45794165752852
120  -8.69375258046572  1.90064985284755
121  -8.32919326531749  2.20391719842996
122  -7.48803987205593  2.43658188821077
123  -6.62475083303535  2.36657600061907
124  -5.80414893809517  2.07004872903658
125  -5.03268299622874  1.65594491959816
126  -4.28258811581171  1.19196532634576
127  -3.51773679626833 0.739439591898132
128  -2.71075684793966 0.353983370261252
129  -1.85552961871884 0.0809385899742054
130  -0.96742928097539 -0.0512299894827165
131  0.0134308352358761 0.521984343496062
132  0.887853036588096 0.557890042196695
133   1.75196755479194 0.698434408958593
134   2.59030615998695 0.968026108055279
135   3.39270632621482  1.35010819897206
136   4.17051059201486  1.80224533412304
137   4.95695179053848  2.26936924219815
138   5.79958950446993  2.68432169657199
139   6.79988637155454  2.95872139049269
140   7.88159913601729  2.89136802562214
141    8.8027273049562  2.31793028358146
142   9.16038594112151  1.72657017037774
143   9.29178900370213  1.10818993076874
144   9.28527343795218 0.600312679503982
145   9.22091310600174 0.118432743248614
146   9.08960317260412  -0.6130814571799
147   8.72235395904813 -1.52272023624907
148   8.71956816820454  -1.5264367928402
149   8.71788224927206 -1.52867684976463
150   8.69366640044834 -1.56011677110574
151   8.61203645875792 -1.65724798977335
152   8.49180584128751 -1.78145107386006
153    8.3492792076663 -1.90821803888021
154   8.19322354623791 -2.02906407948879
155   8.03106581580288 -2.14018609959659
156   7.86685911255078 -2.24136684600398
157   7.70170697783699 -2.33406302106669
158    7.5352521167428 -2.41996960507231
159   7.36679002493464 -2.50041974022368
160   7.19575303660387 -2.57629633877872
161    7.0218134311592 -2.64812779828334
162   6.84483997455796 -2.71620726189937
163   6.66482436527023 -2.78068611729054
164     6.481820289151 -2.84163632109773
165   6.29590621671796 -2.89908807594098
166   6.10717178220084 -2.95305071437483
167   5.91572342907455 -3.00352351110531
168   5.72170142276717 -3.05050205490884
169   5.52529632362589 -3.09398466862699
170   5.32675279528995 -3.13398112822259
171   5.12635601610679  -3.1705227153501
172   4.92440692715499 -3.20367047679692
173   4.72119783360059 -3.23351910555948
174   4.51699636999433 -3.26019610514517
175   4.31203896273827 -3.28385765474743
176   4.10653062102387 -3.30468293198251
177   3.90064738674781 -3.32286810711223
178   3.69453915649405 -3.33862059186352
179   3.48833198464924 -3.35215375398656
180   3.28212972887039  -3.3636821686749
181   3.07601513924893 -3.37341744485449
182   2.87005052213389 -3.38156465551706
183    2.6642781261758 -3.38831938843227
184    2.4587204710293 -3.39386541544909
185   2.25338095319516   -3.398372960045
186   2.04824515650925 -3.40199752649942
187   1.84328328772274 -3.40487923965067
188   1.63845399183264 -3.40714263006841
189   1.43370947878075 -3.40889678526191
190   1.22900149409542 -3.41023577533539
191   1.02428732900461 -3.41123925511525
192  0.819534922557975 -3.41197314749441
193  0.614726218432721 -3.41249032505451
194  0.409858260023405   -3.412831226035
195  0.204941923722481 -3.41302436151935
196  -1.42302687926565e-06 -3.41308668875143
197  -0.204944773496347 -3.41302383827868
198  -0.409861120460546 -3.41283019004529
199  -0.614729095050303 -3.41248879724768
200  -0.819537818713497 -3.41197115913756
201  -1.02429024547861 -3.41123684764536
202  -1.22900442908914 -3.41023300012181
203  -1.43371242838046 -3.40889370327597
204  -1.63845695092435 -3.40713931142824
205  -1.84328625126478 -3.40487576299937
206  -2.04824812101114  -3.4019939781669
207   -2.2533839182183 -3.39836943294476
208  -2.45872344054358 -3.39386200767317
209  -2.66428110963427 -3.38831620153147
210  -2.87005353518961 -3.38156179248854
211  -3.07601820407204 -3.37341500790317
212  -3.28213287404749 -3.36368025686373
213  -3.48833524466862 -3.35215246094046
214  -3.69454257082711 -3.33862000373677
215  -3.90065099857678 -3.32286830106182
216  -4.10653447570144 -3.30468397540269
217  -4.31204310612307 -3.28385960550244
218  -4.51700084682988 -3.26019901298381
219  -4.72120268605617 -3.23352301480946
220  -4.92441219357685 -3.20367543031995
221  -5.12636173002299  -3.1705287595859
222  -5.32675898500407  -3.1339883189196
223  -5.52530301307376 -3.09399307656462
224  -5.72170863344457 -3.05051177084961
225  -5.91573117922499 -3.00353464999306
226   -6.1071800741305 -2.95306342070402
227  -6.29591500199254 -2.89910253396709
228  -6.48182941164581 -2.84165277218483
229  -6.66483350314618 -2.78070488004598
230  -6.84484862250292 -2.71622874052485
231  -7.02182096555165 -2.64815245733415
232  -7.19575887678248 -2.57632462647778
233   -7.3667938526435 -2.50045195988974
234  -7.53525407507734 -2.42000575499273
235  -7.70170776805472 -2.33410263120289
236  -7.86685992225105 -2.24140883714068
237  -8.03106798839906 -2.14022871570217
238  -8.19322786388822 -2.02910504448261
239  -8.34928479542671 -1.90825525327051
240  -8.49180924912916 -1.78148412827606
241  -8.61203193884111 -1.65728013721047
242  -8.69368804809886  -1.5601061094559
243  -8.71789839333731 -1.52866820084771
244  -8.71958550225218 -1.52642618764621
245   -8.7223740157486 -1.52270535865623
246  -9.08948945311795 -0.61311320651841
247  -9.22072170927575 0.118409774806167
248  -9.28506914924565  0.60024275269298
249  -9.29165431104166  1.10800887564188
250  -9.16055055904481  1.72627659458757
251  -8.80318696209389  2.31820103755069
252  -7.88258819584328   2.8931370379396
253  -6.80089886582226  2.96260844782995
254  -5.79798774641138  2.68841602895675
255  -4.95383364362209  2.27203147894137
256  -4.16637887942319  1.80225342181323
257  -3.38724596394802  1.34697757586318
258  -2.58221743653577 0.962492319781363
259  -1.73909292878848 0.692390178227465
260   -0.8670138072643 0.553539308454699
