// Id               X                Y
  1  -0.111497268804517  10.5680697132245
  2  0.997495222669074  10.5105637866669
  3   2.05031890392417  10.2023940048167
  4   3.06620386431536  9.77964712170245
  5    3.9838076082793  9.19974671299955
  6   4.84702555716163  8.52989983968286
  7   5.53549756342224  7.69860996384984
  8   6.10863987423699  6.83385581494186
  9   6.64496425962199  5.92877380580303
 10   7.23221152559093  5.03976443076351
 11   7.86976182286359  4.17519506495332
 12   8.25342698735385  3.62042186043773
 13   8.56530799549198  3.02021983754069
 14   8.67064521521018  2.39270557451826
 15   8.48131841155523  1.91363650532701
 16   7.82126662008175  1.62945004121091
 17   7.51704742622027  1.67285662842921
 18   7.41528518462527  1.70820349305725
 19   7.32100901263754   1.7515310811191
 20   7.23026769402376  1.80376847844621
 21    7.1431689894727  1.86507727763395
 22   7.05816937056019  1.93700520594139
 23   6.97417603435922  2.02223513291383
 24   6.89127557050228  2.12339312230193
 25   6.81069977903375   2.2428281631612
 26   6.73406582814041  2.38300952788846
 27   6.65082273195743  2.58071902296843
 28   6.58033133316261  2.81243070434001
 29   6.52791717174278  3.06131781892795
 30   6.49106912018469  3.32182743691141
 31   6.46562486443178  3.59027608524118
 32   6.44688980270567  3.86420560087484
 33   6.43024872197746  4.14199382518918
 34   6.41149342747799  4.42250957650134
 35   6.38697120327426  4.70484591070525
 36   6.35363223712582  4.98814698349346
 37   6.30902524020072  5.27151772777908
 38     6.251267242259  5.55399476066715
 39   6.17899976360241  5.83455594236934
 40   6.09133723640323  6.11214966072188
 41   5.98781120195122  6.38573041038041
 42    5.8683128431242  6.65429268365787
 43   5.73303574104091  6.91689923323098
 44   5.58242034507648  7.17270201199416
 45   5.41710166361027  7.42095510854729
 46   5.23786193438692  7.66101964157472
 47   5.04559006527146  7.89236139235861
 48   4.84124897832944  8.11454304613475
 49   4.62585025975776  8.32721415242717
 50   4.40043248023247  8.53010301203162
 51   4.16603566516821  8.72301482959224
 52   3.92366241485293  8.90583761870728
 53   3.67422255818822  9.07854887723476
 54   3.41847797309535  9.24120379895849
 55   3.15702406198245  9.39388362150881
 56   2.89033089040248  9.53660659617833
 57   2.61881875505353   9.6692380879153
 58    2.3429184899551  9.79143946684284
 59   2.06309498447214  9.90266617533496
 60   1.77984711019332  10.0022017368438
 61    1.4937022577021  10.0892125023104
 62   1.20521023004468  10.1628147576803
 63  0.914929685013702  10.2221492724835
 64  0.623399236399498  10.2664561399312
 65   0.33109641369459  10.2951383124275
 66  0.0384066578607347  10.3078022139722
 67  -0.254366193045303  10.3042734462186
 68  -0.546939358064248  10.2845988008457
 69  -0.838976097957364  10.2490460122773
 70  -1.13004637103005  10.1980974417357
 71  -1.41963883510192  10.1324240487014
 72  -1.70720055580962  10.0528338862141
 73  -1.99217419403391  9.96020262256059
 74  -2.27401919433412  9.85539864436917
 75  -2.55222013194714  9.73921230449192
 76  -2.82629124525262   9.6122946260186
 77  -3.09578056669668  9.47511060836648
 78    -3.360263506569  9.32791770885875
 79  -3.61930676585913  9.17078545831956
 80  -3.87239966090028   9.0036630663897
 81  -4.11888764931345  8.82647301936682
 82    -4.357953725704  8.63918823217772
 83  -4.58865419051396  8.44186758196616
 84   -4.8099765698609  8.23465854678264
 85  -5.02088923142398  8.01778937581937
 86  -5.22037453715334  7.79156547614289
 87  -5.40745205991819  7.55637329239126
 88  -5.58120090617742  7.31268883020007
 89  -5.74078713784819  7.06108651104482
 90  -5.88549869345325  6.80224464852325
 91  -6.01478773680709  6.53694499385391
 92   -6.1283191035955  6.26606495303061
 93  -6.22602316033284  5.99056202747316
 94  -6.30815152439007  5.71145073630153
 95  -6.37533425551835  5.42977300993509
 96  -6.42863696568769  5.14656448349016
 97   -6.4696157607939  4.86282205743191
 98  -6.50036714251197  4.57948276634336
 99  -6.52356855287844  4.29742964118649
100  -6.54250141232973  4.01754528431699
101  -6.56103914693599  3.74083599213652
102  -6.58356457518429  3.46864431031449
103  -6.61475442647758  3.20294851490246
104  -6.65914337665288  2.94671020213388
105  -6.72036141054761  2.70423370339433
106  -6.79964993827743  2.48212878512421
107  -6.87418941663272   2.3252348098965
108  -6.95141607814295  2.19509453669516
109  -7.03126132033043  2.08476891374976
110  -7.11264561350267  1.99129724405992
111  -7.19540663325326  1.91172969937845
112  -7.28066459138497  1.84314698096372
113  -7.36999868787122  1.78360609819706
114  -7.46350208121419  1.73300366834984
115  -7.56507445188664  1.69007406048477
116  -7.86714692155126  1.62619244515913
117  -8.54650696086898  1.86626240805938
118  -8.75843052185607  2.33323802656915
119  -8.67471181093122  2.95724809393587
120  -8.37086205628347  3.56121080020199
121  -7.98681695297669  4.11575461434973
122  -7.33958248176673  4.97312852066156
123  -6.74306803046299  5.85763272210764
124  -6.21031875583472   6.7644699828068
125   -5.6910870389066  7.65410352668057
126  -4.98199870759912  8.48043971800609
127  -4.13580106557466  9.14725867919023
128  -3.23365702494429  9.74155024930059
129  -2.22562011764445  10.1514687870306
130  -1.17784418022706   10.401227468936
131  -0.0715788374381734  11.1469373617112
132   1.02920675045316   11.085176040632
133   2.09558550452606   10.793872797187
134   3.11287015019285  10.3611651698735
135   4.06495230389364  9.79319153148816
136    4.9346813690165  9.10589837209151
137   5.69116970409045  8.28956894397258
138   6.34674690621256  7.39486408322685
139   6.94656248777711  6.46728443686651
140   7.55937458278349  5.56192206836996
141   8.18014225918614  4.67237870361512
142   8.52739914633638  4.08532040731536
143   8.81449045022582  3.45899626485627
144   9.02657798921502  2.78269143315345
145     9.209328606503  2.09584160570146
146   9.47214179885085  1.44344407789424
147   9.77131252468319 0.442057848315031
148   9.65144007265149 -0.0222905862645869
149   9.42918727603981 -0.368979473477758
150   9.14535138655156 -0.624259844731373
151   8.82143809697586 -0.800117627060867
152   8.47353416258053 -0.903583288886623
153   8.11561821691702 -0.940620257046903
154   7.75770632251251 -0.917213155969254
155   7.40554188002305 -0.838017023803185
156   7.06245929478887 -0.705526433737501
157   6.74298857460885 -0.52823788574896
158   6.44174849942365 -0.306379998785881
159   6.16169412854911 -0.0433953161914832
160   5.90865956403875  0.25229442385808
161   5.68584451809285 0.570868300193083
162   5.49351868702475 0.902799990849358
163   5.32960835423711  1.23980378072473
164    5.1904978736171  1.57523491032087
165   5.07178830937091  1.90415779622203
166   4.96891289211067  2.22321635440989
167   4.87757112192179  2.53038852971454
168   4.79398228811007  2.82468862237404
169   4.71498850764983   3.1058720912051
170   4.63805181420133  3.37418375450947
171   4.56118852373422  3.63017040501315
172   4.48287347052866  3.87455873740987
173   4.40193445257789  4.10818576937307
174   4.31744766741013  4.33196433992113
175   4.22863866047863  4.54686876722365
176     4.134789361545  4.75393085797079
177   4.03514958111262   4.9542399015518
178   3.92885171195481   5.1489390503356
179   3.81483284438072  5.33920279160002
180   3.69178265396672  5.52616652332867
181   3.55815906721437  5.71076745336205
182   3.41233334846448  5.89347095570037
183   3.25289910227122  6.07393715374491
184   3.07905654204338  6.25082303410207
185   2.89082434491186  6.42196327717508
186   2.68886843628763  6.58493178313263
187   2.47405323390743  6.73762823648661
188   2.24705437408003  6.87853033362274
189   2.00824021050936   7.0065951920653
190   1.75777528937471  7.12102332321562
191   1.49581012074373  7.22106003943724
192   1.22267714469125  7.30588775415281
193  0.939082705412378  7.37459773428616
194  0.646303218963871  7.42622593507252
195  0.346353842639932  7.45985188491368
196  0.0420310699022633  7.47475428038814
197  -0.263285456481984  7.47057897489356
198  -0.566075162597704  7.44743735209777
199  -0.863185169463358  7.40587458651298
200  -1.15217095921011  7.34672817136385
201  -1.43137224823445  7.27095706011206
202  -1.69979619351458  7.17950993150894
203  -1.95692893849451  7.07325548516024
204  -2.20254483386804  6.95297310306545
205  -2.43652056483559  6.81940920454888
206  -2.65864414152929  6.67341748051361
207  -2.86844967693408  6.51617893404798
208  -3.06518350977543   6.3494078283531
209  -3.24802344103678  6.17533851228471
210  -3.41651480733012   5.9963358901881
211  -3.57094139936727  5.81427976895209
212  -3.71234863224835  5.63012647037097
213   -3.8422441767052  5.44388484259955
214  -3.96222871996477  5.25488720306486
215   -4.0737499210501  5.06211005423463
216   -4.1780125382823  4.86440379357057
217   -4.2759933827943   4.6606143898558
218  -4.36850557993599  4.44963236930502
219   -4.4562798806381    4.230406104244
220  -4.54005087402159  4.00194277791083
221  -4.62064640910502  3.76330889644614
222  -4.69908179375186  3.51363711759688
223  -4.77665966778259  3.25214683689815
224  -4.85507368874867  2.97819019988679
225  -4.93650958443879  2.69133958235252
226  -5.02372989891773   2.3915327298962
227  -5.12011832306497  2.07928401748094
228   -5.2296476660906  1.75595440228415
229  -5.35672783466592  1.42405294812371
230  -5.50589390801769  1.08752600375318
231  -5.68131276166926 0.751979676458909
232  -5.88611527728671 0.424769892091953
233  -6.12159905545825 0.114858844490113
234  -6.38643240324621 -0.167747133317421
235  -6.67623843290719 -0.413243751188356
236  -6.98457500978606 -0.614107486389121
237  -7.32084482385064 -0.772617351429721
238  -7.67073513203875 -0.87784601333227
239  -8.02937200360082 -0.926166463301502
240  -8.39113789432554 -0.912668804988365
241  -8.74628043199239 -0.830910741532767
242  -9.08086246250146 -0.674328198732632
243  -9.37881621487037 -0.435383606419323
244  -9.61912847219523 -0.101349213993125
245  -9.76221486179379 0.355287427219974
246  -9.51690711814998    1.360349215742
247  -9.28161015921015  2.02231714682664
248  -9.12251275314838  2.71456435078449
249  -8.92573611920317  3.39487188837228
250   -8.6457045393074  4.02284147565968
251  -8.29956055077098  4.60786795664469
252  -7.67303806818815  5.49076742235462
253  -7.05629312818246  6.39018794928419
254  -6.46701416059461  7.32279230509061
255  -5.83054223460777  8.23441239236077
256  -5.08087176683208  9.05637601429529
257   -4.2153355052944  9.75028507334273
258  -3.26300598386096  10.3215388913425
259  -2.23733968943151  10.7354253924902
260  -1.16791261949685  11.0075335634159
